0
-5.0475830685833945e-06
-2.3929280606848093e-06
-8.497778892338612e-08
1.5870934077382878e-06
2.435888557479698e-06
2.4038101523350013e-06
1.5684707111946512e-06
1.2478735057489705e-07
-1.652688398019782e-06
-3.460010997306803e-06
-5.0171446992165874e-06
-6.1143569690365574e-06
-6.643259498841885e-06
-6.60728499566339e-06
-6.11060716155677e-06
-5.328786217761647e-06
-4.467849455681431e-06
-3.7204406236009467e-06
-3.2278043706798416e-06
-3.0548004065084823e-06
-3.182267955798695e-06
-3.517493525401996e-06
-3.919964886161734e-06
-4.236670510848107e-06
-4.339432888444366e-06
-4.156444183326905e-06
-3.6913611598856824e-06
-3.0258224372748138e-06
-2.3046458136495358e-06
-1.7066144847315082e-06
-1.406917866593222e-06
-1.539253654900814e-06
-2.1658162076458094e-06
-3.2617643967211023e-06
-4.717601299157171e-06
-6.358922036089049e-06
-7.979129543342849e-06
-9.377903389462675e-06
-1.0397106510222009e-05
-1.0946670964809568e-05
-1.1015559377690586e-05
-1.0666471911305205e-05
-1.0016652499742599e-05
-9.21006328877496e-06
-8.387709532669744e-06
-7.662749189501019e-06
-7.1053532959737434e-06
-6.739578163113875e-06
-6.55146865903587e-06
-6.504977841705889e-06
-6.56066487974854e-06
-6.691835186853481e-06
-6.893783624972412e-06
-7.1837646462419884e-06
-7.5917306488151065e-06
-8.14419173258988e-06
-8.845269443648836e-06
-9.659819869914955e-06
-1.0503268138063883e-05
-1.1241599624859835e-05
-1.1703013605452917e-05
-1.170039028624724e-05
-1.1061360544918582e-05
-9.66085425422349e-06
-7.449971482426014e-06
-4.475180650612329e-06
-8.832776298357129e-07
3.089974850887579e-06
7.146554141957385e-06
1.0964282924849417e-05
1.4240131697339966e-05
1.6731458915644133e-05
1.828825948383404e-05
1.887110127005605e-05
1.855195925540505e-05
1.749810807694393e-05
1.5942074764461248e-05
1.4142909434001296e-05
1.2345348997563794e-05
1.074364170111946e-05
9.455871926457995e-06
8.51275472704979e-06
7.862367786893372e-06
7.389538724536193e-06
6.946027507862628e-06
6.385670200926052e-06
5.597681332905989e-06
4.531617540060852e-06
3.2091110762128995e-06
1.7201156963733916e-06
2.045440176247188e-07
-1.1768339717915773e-06
-2.27613641176851e-06
-2.989669588404643e-06
-3.2801573620395692e-06
-3.185142106839421e-06
-2.8097171722661183e-06
-2.305116398054923e-06
-1.8377590147178373e-06
-1.5554193608016416e-06
-1.5577652382689872e-06
-1.8774450213680957e-06
-2.475460654451472e-06
-3.2513373246001093e-06
-4.065371402625783e-06
-4.767768707167547e-06
-5.228316497317461e-06
-5.360543376966098e-06
-5.135903449094647e-06
-4.585883387442145e-06
-3.7924770528213233e-06
-2.869668468472144e-06
-1.940041034166779e-06
-1.1112127062602212e-06
-4.564869430253419e-07
-3.0578584792676936e-09
2.704334233005776e-07
4.269323179792948e-07
5.561939174121342e-07
7.551507365814684e-07
1.1072576855311827e-06
1.6648993295287069e-06
2.43845515605878e-06
3.394359797237265e-06
4.462616624849947e-06
5.552096851995762e-06
6.570114339256145e-06
7.441735983411748e-06
8.124396709695126e-06
8.614631573505834e-06
8.945765396708083e-06
9.177633485390962e-06
9.381228699775367e-06
9.622117642163835e-06
9.946360518222767e-06
1.0371639012566529e-05
1.0884731421625148e-05
1.1444878971035981e-05
1.1991415945443567e-05
1.2453547614024223e-05
1.276034742112504e-05
1.2849670947576794e-05
1.2675400801293338e-05
1.2212935054071382e-05
1.146295697088567e-05
1.0453317467007916e-05
9.238530078932078e-06
7.89619872032137e-06
6.5199000000076504e-06
5.208700564169183e-06
4.054477484488628e-06
3.129211677119721e-06
2.4750279759203754e-06
2.099594213523199e-06
1.978413750049012e-06
2.063742365392551e-06
2.297867347382441e-06
2.627016255364338e-06
3.0118177442883356e-06
3.4312452831223682e-06
3.879078719272591e-06
4.354454446327833e-06
4.85019318740058e-06
5.34353915348727e-06
5.793311431397811e-06
6.145369987980369e-06
6.3453677170393844e-06
6.354971423867818e-06
6.166086652315624e-06
5.807780621227027e-06
5.342635433340717e-06
4.852586717696141e-06
4.4178244548959206e-06
4.094843041301709e-06
3.900331385971255e-06
3.8060421528580817e-06
3.746556898293086e-06
3.6380019131772317e-06
3.4024765730485986e-06
2.9912244210201634e-06
2.399900877554242e-06
1.6715529206885121e-06
8.864490030177518e-07
1.4163981493612626e-07
-4.740133986902994e-07
-9.024630048602402e-07
-1.1307217302904259e-06
-1.1932031373246496e-06
-1.1619641677093916e-06
-1.1278460547931676e-06
-1.1777068433002741e-06
-1.3736590499300122e-06
-1.7394131560480023e-06
-2.2568075469579047e-06
-2.8729602164779984e-06
-3.515881250966949e-06
-4.114441010015593e-06
-4.617699196121805e-06
-5.008894938036028e-06
-5.3107386592729026e-06
-5.580691189198642e-06
-5.8972153408320136e-06
-6.340069076894482e-06
-6.969145618306335e-06
-7.806818792638936e-06
-8.828060871229836e-06
-9.96086610621944e-06
-1.1097130144998889e-05
-1.2111707145912291e-05
-1.2885521842850186e-05
-1.3327807739656368e-05
-1.3392927708862411e-05
-1.308863970105519e-05
-1.2474679129478105e-05
-1.1652604044930976e-05
-1.0749484168019662e-05
-9.898869211444445e-06
-9.22245461862594e-06
-8.815140813869904e-06
-8.735099562742935e-06
-8.999398937669315e-06
-9.584970227055252e-06
-1.0434298750496005e-05
-1.1465052498446347e-05
-1.2582684411724921e-05
-1.3694668175115358e-05
-1.4724467849969591e-05
-1.5622845554442426e-05
-1.6374044600088762e-05
-1.6995035843394065e-05
-1.75274155499437e-05
-1.8023399514562593e-05
-1.852911932713415e-05
-1.9069478125284627e-05
-1.963872425007304e-05
-2.0199562159585684e-05
-2.0691351966441963e-05
-2.1045378210238707e-05
-2.1203047861180727e-05
-2.113185542533861e-05
-2.0834372336047733e-05
-2.03473110705229e-05
-1.973042265822529e-05
-1.904788687618583e-05
-1.8347157031202554e-05
-1.7641278578776796e-05
-1.690017773840228e-05
-1.605437166816313e-05
-1.5011423478129166e-05
-1.3681977938676805e-05
-1.2009234959769688e-05
-9.99407698656834e-06
-7.708345065104189e-06
-5.291092209422496e-06
-2.9266072951371405e-06
-8.076586825913547e-07
9.084732407824333e-07
2.1411894406286426e-06
2.9150486642275676e-06
3.368175517624477e-06
3.7377539885400813e-06
4.324983202132158e-06
5.44642444578758e-06
7.3814118746591134e-06
1.0325582192908615e-05
1.4358735791891249e-05
1.943185473003684e-05
2.5374122029383476e-05
3.191714255766021e-05
3.873095103769956e-05
4.5465146601215006e-05
5.178859369274828e-05
5.742228289124152e-05
6.216173298234897e-05
6.588732521192644e-05
6.85628621432094e-05
7.022420688939682e-05
7.09609462015042e-05
7.08945787256281e-05
7.0156772924623e-05
6.887082745038925e-05
6.713868090659465e-05
6.50347580076491e-05
6.260674327656366e-05
5.988222726866951e-05
5.687927800792586e-05
5.361851196219598e-05
5.013423082188516e-05
4.648258545805723e-05
4.274536844318237e-05
3.902874316214207e-05
3.5456873134562726e-05
3.2161009996760777e-05
2.926520311568437e-05
2.6870455512608798e-05
2.503978578403979e-05
2.3787030331478815e-05
2.3072053198711067e-05
2.280415180235623e-05
2.285391228341972e-05
2.307188035287345e-05
2.331065146352163e-05
2.3445879757058412e-05
2.33916834616022e-05
2.3107132509040755e-05
2.2592697028481534e-05
2.1878104401046533e-05
2.100522219166059e-05
2.0010697388581257e-05
1.8912841801193826e-05
1.7705814724065238e-05
1.636203664925443e-05
1.484163278095489e-05
1.3106106976096799e-05
1.1132678429972477e-05
8.92579510142439e-06
6.523109306969853e-06
3.994431971563816e-06
1.4336389358004229e-06
-1.0550431894017104e-06
-3.3737357273855534e-06
-5.447242752640342e-06
-7.235648447258997e-06
-8.7405081946501e-06
-1.0003252470839462e-05
-1.1096002473198036e-05
-1.2106527859206244e-05
-1.3120258635698822e-05
-1.4202886250729793e-05
-1.5387054361876058e-05
-1.6665951461771685e-05
-1.799536549015856e-05
-1.9304112063010188e-05
-2.0510957095777966e-05
-2.15445714555217e-05
-2.236208802779519e-05
-2.2961833071655597e-05
-2.3386919049032393e-05
-2.3718446464757954e-05
-2.40595934358069e-05
-2.4514220741302427e-05
-2.516514455883538e-05
-2.605747730220415e-05
-2.719127141367721e-05
-2.8525349118388355e-05
-2.999122931956405e-05
-3.151326312490584e-05
-3.3029280078965335e-05
-3.4505823758924e-05
-3.59435740478818e-05
-3.737143439604915e-05
-3.883117157410914e-05
-4.035739318496183e-05
-4.1959124405825115e-05
-4.360882099590187e-05
-4.5242445351014135e-05
-4.677091494992792e-05
-4.809983466128689e-05
-4.915198738188708e-05
-4.988630056285535e-05
-5.0308107797159396e-05
-5.046809260499167e-05
-5.04505234556591e-05
-5.035429720316873e-05
-5.0272074620693775e-05
-5.02729699237311e-05
-5.039289535297299e-05
-5.0634258923827505e-05
-5.097402568221958e-05
-5.1376950607846967e-05
-5.180964217631938e-05
-5.2251258637991535e-05
-5.2697958524752545e-05
-5.316030434776196e-05
-5.3655044197524486e-05
-5.419442476263366e-05
-5.47769153629985e-05
-5.538273091362756e-05
-5.597598478416808e-05
-5.6513164142120786e-05
-5.695556398147877e-05
-5.728196535106969e-05
-5.749758244089264e-05
-5.763617669786784e-05
-5.775397427929508e-05
-5.791615570924028e-05
-5.817868366737375e-05
-5.856962925141287e-05
-5.907463066090254e-05
-5.9630549039700744e-05
-6.0129859106698175e-05
-6.043610160285759e-05
-6.0408255421065864e-05
-5.992966899785121e-05
-5.893571644503742e-05
-5.743397473045186e-05
-5.5511595621991965e-05
-5.3326569450449764e-05
-5.1082438523852996e-05
-4.8989263056050726e-05
-4.721673929534196e-05
-4.5847760186354454e-05
-4.48418592207815e-05
-4.401745069918038e-05
-4.305935021868902e-05
-4.155385509959944e-05
-3.904826255065442e-05
-3.512611931700222e-05
-2.9485023131962904e-05
-2.2001698046177693e-05
-1.2770199420878815e-05
-2.1035903186836753e-06
9.503487475932247e-06
2.144575457473195e-05
3.309879112463296e-05
4.391338473001732e-05
5.34941418446471e-05
6.164710405787552e-05
6.838792517057499e-05
7.391080319554896e-05
7.852667430294852e-05
8.258516491740682e-05
8.639718931050203e-05
9.017360944843014e-05
9.399072919172528e-05
9.778690844700652e-05
0.000101387831303434
0.000104552392881742
0.00010702781840922849
0.00010860196066636949
0.00010914260665702233
0.00010861741767692246
0.00010709284103406146
0.00010471485656469615
0.00010167777813526436
9.818890775649497e-05
9.443653049731731e-05
9.056691363390998e-05
8.667330446059084e-05
8.279713320879924e-05
7.893929485950642e-05
7.507782965491194e-05
7.118763144406615e-05
6.725791584549239e-05
6.330394695602752e-05
5.937081370885698e-05
5.552870501215998e-05
5.186092420523868e-05
4.8447479730175315e-05
4.534812085080995e-05
4.2588866528838436e-05
4.015531340746234e-05
3.7994460965450905e-05
3.6024813702750924e-05
3.415256788292687e-05
3.2290215191850766e-05
3.0373254864784915e-05
2.8371088072549796e-05
2.628953406503606e-05
2.416446375964501e-05
2.2048288671610653e-05
1.9992879281695215e-05
1.8033411959131536e-05
1.61773943006039e-05
1.4401750553138523e-05
1.2658718879477598e-05
1.0888985806822605e-05
9.038582562842015e-06
7.075098252121946e-06
4.998971876875166e-06
2.8469337549683823e-06
6.867085191951265e-07
-1.3956915988586985e-06
-3.312953147957247e-06
-4.993659905676491e-06
-6.395746145582805e-06
-7.5133047682331256e-06
-8.375541611547122e-06
-9.038572036464159e-06
-9.572432096540046e-06
-1.0046730236787646e-05
-1.0518529510787876e-05
-1.1025267797187293e-05
-1.1583992985992493e-05
-1.2196334126390028e-05
-1.2856981914186389e-05
-1.3562497863057524e-05
-1.4317296780571068e-05
-1.5134650210540741e-05
-1.603225168055757e-05
-1.7023773634870768e-05
-1.8109358530190178e-05
-1.92686248251104e-05
-2.0459260898899952e-05
-2.1622692803999652e-05
-2.2696071576402165e-05
-2.362761913970265e-05
-2.439093742448496e-05
-2.4993760983774912e-05
-2.5477951971127724e-05
-2.5909958380700557e-05
-2.6363772486963304e-05
-2.690078607186803e-05
-2.755211393764488e-05
-2.830855220223962e-05
-2.912140493813605e-05
-2.9914451265795977e-05
-3.060416104545721e-05
-3.112282367338615e-05
-3.143826839060737e-05
-3.1564638296671104e-05
-3.156102086082368e-05
-3.151797612061829e-05
-3.153525244437571e-05
-3.1696379806667504e-05
-3.204676223936655e-05
-3.258110578709032e-05
-3.324369162719641e-05
-3.394170597629798e-05
-3.456841073300795e-05
-3.5030290576512404e-05
-3.527117406261672e-05
-3.528703194319882e-05
-3.512753210049812e-05
-3.4883843684138744e-05
-3.466572487727238e-05
-3.457366662264032e-05
-3.467308624247075e-05
-3.4976966824910054e-05
-3.544111549493071e-05
-3.59730097702244e-05
-3.645191580238651e-05
-3.675547069677207e-05
-3.678680299201441e-05
-3.6496644883736334e-05
-3.589644715022191e-05
-3.506064675201453e-05
-3.4118320089462654e-05
-3.3236001407634214e-05
-3.2594237847794194e-05
-3.236055061745817e-05
-3.2661165228202246e-05
-3.3553574060910186e-05
-3.500206907853098e-05
-3.685896457505584e-05
-3.885509256813658e-05
-4.06037453785423e-05
-4.1621901126701036e-05
-4.137083242293038e-05
-3.931503883055834e-05
-3.499435540651972e-05
-2.8100001080802388e-05
-1.8542376039745437e-05
-6.497628033129546e-06
7.578013347282488e-06
2.2972462638922726e-05
3.878034726628598e-05
5.3996675216186324e-05
6.762843276024777e-05
7.880743828317143e-05
8.688740002341322e-05
9.151084837066324e-05
9.263678371048957e-05
9.052644477604527e-05
8.569134298503849e-05
7.881344572013523e-05
7.065116309576965e-05
6.194601811273701e-05
5.334347555440731e-05
4.533779396920253e-05
3.82457710868961e-05
3.2208909601260104e-05
2.7218864074162555e-05
2.3157864024323048e-05
1.9844615991697783e-05
1.7077009772539693e-05
1.4665396923306078e-05
1.245352975200484e-05
1.0327535656438487e-05
8.215728860259678e-06
6.083136357470358e-06
3.924316734699468e-06
1.756789575192868e-06
-3.8419244734569605e-07
-2.4500930514105966e-06
-4.383932316087954e-06
-6.126488875116e-06
-7.624015606586951e-06
-8.836570713762305e-06
-9.745256538706984e-06
-1.0356452398490062e-05
-1.0701643165987155e-05
-1.0832522616124414e-05
-1.0812335175905213e-05
-1.0705500994426332e-05
-1.0568105437829394e-05
-1.0441632345259604e-05
-1.0351382444561613e-05
-1.0309565418669424e-05
-1.032150928800475e-05
-1.039231833637361e-05
-1.0531072371488496e-05
-1.0750462005347704e-05
-1.1061393361621506e-05
-1.1464056336814502e-05
-1.1938583438263847e-05
-1.2439156554117064e-05
-1.2894923060116331e-05
-1.3219394457023702e-05
-1.3327524928370717e-05
-1.3157084233844524e-05
-1.2689022842250076e-05
-1.1960925835467039e-05
-1.1068692346572327e-05
-1.0154136668814811e-05
-9.379703729614068e-06
-8.895015716094345e-06
-8.8025329508656e-06
-9.130455410872676e-06
-9.819804743974194e-06
-1.0729659315302486e-05
-1.1660493645924756e-05
-1.2391480469989805e-05
-1.2724405457881557e-05
-1.2525219467502502e-05
-1.1754524065842303e-05
-1.0480363531983148e-05
-8.870146015198936e-06
-7.162659018702269e-06
-5.625181652082503e-06
-4.503845051138404e-06
-3.9770129543186e-06
-4.121158471878029e-06
-4.896448454367563e-06
-6.15535098986191e-06
-7.672782656945877e-06
-9.191637206815154e-06
-1.047409684481772e-05
-1.1347808969601542e-05
-1.1737192648488536e-05
-1.1673550941116969e-05
-1.1282469135918213e-05
-1.0752015141693661e-05
-1.0289354850577368e-05
-1.0075647056246898e-05
-1.0229045305122204e-05
-1.0783404273431016e-05
-1.1686454401804117e-05
-1.2816694588684067e-05
-1.4014101355736663e-05
-1.5116896489613243e-05
-1.5995671976972203e-05
-1.657730133855544e-05
-1.6853927330585323e-05
-1.6876141349771923e-05
-1.673327163817726e-05
-1.6526540579559907e-05
-1.6342115193308936e-05
-1.623060122471711e-05
-1.6197607072827237e-05
-1.6207205891274986e-05
-1.6197116289808215e-05
-1.610179576833222e-05
-1.5877834217743377e-05
-1.5525307062408823e-05
-1.509918335574942e-05
-1.4706415815848247e-05
-1.4486785628056296e-05
-1.457866656689164e-05
-1.5074247089341363e-05
-1.5971910002105937e-05
-1.7135775366830462e-05
-1.8273146692107903e-05
-1.8939154459951464e-05
-1.8574016116417864e-05
-1.657236062231641e-05
-1.2376993823653089e-05
-5.582835568979448e-06
3.967743335573949e-06
1.6117882551202172e-05
3.0373837786077256e-05
4.59362538897561e-05
6.178416844735836e-05
7.680029317808063e-05
8.99173910777901e-05
0.00010026064879053912
0.00010726104321640767
0.00011071991282868571
0.00011081422109911704
0.00010804338756885647
0.00010312963067892963
9.689214790539821e-05
9.01193898425594e-05
8.346242779151915e-05
7.736644009550881e-05
7.204820831474588e-05
6.751745667522846e-05
6.363122179712586e-05
6.016505071826953e-05
5.688362279334146e-05
5.359622509448452e-05
5.0188275896554586e-05
4.662707505036407e-05
4.2946318817942544e-05
3.921815320705918e-05
3.552287343631919e-05
3.1924893717953214e-05
2.8460148223547238e-05
2.5135896319732562e-05
2.19402436981041e-05
1.885644384612625e-05
1.5876556108500234e-05
1.3010126929378618e-05
1.0285676828555242e-05
7.745193945841268e-06
5.433860298163413e-06
3.3883698851759147e-06
1.6272439250012014e-06
1.456372384216671e-07
-1.084363794054709e-06
-2.1085486718063164e-06
-2.9823561516069003e-06
-3.76210411828933e-06
-4.4980425100776655e-06
-5.23078384285321e-06
-5.9914067882503325e-06
-6.804198947257651e-06
-7.690032538206647e-06
-8.66810028790863e-06
-9.754321344038113e-06
-1.0956025670783683e-05
-1.22641531645226e-05
-1.3645624623230833e-05
-1.5039227706192209e-05
-1.635796379071928e-05
-1.749929408621601e-05
-1.836245518688555e-05
-1.8869636805714133e-05
-1.8986082714976725e-05
-1.8733700212898306e-05
-1.819380823000978e-05
-1.7497047906222333e-05
-1.6801646240270963e-05
-1.626432135618785e-05
-1.601026209173728e-05
-1.6109140766135247e-05
-1.6562804855084762e-05
-1.7307452194410926e-05
-1.822948609879671e-05
-1.919085990824103e-05
-2.005748570361579e-05
-2.0723803291074075e-05
-2.1127982006060384e-05
-2.1255023902260327e-05
-2.1128416955906235e-05
-2.0793970768615683e-05
-2.030122356710187e-05
-1.9687899778895427e-05
-1.8971399949280463e-05
-1.814877396415317e-05
-1.720390148022918e-05
-1.6118519564669724e-05
-1.4882881290915747e-05
-1.3502378179052771e-05
-1.1998159431392443e-05
-1.0402029939404566e-05
-8.747936861084824e-06
-7.063470762362977e-06
-5.364647854631341e-06
-3.6559074860559426e-06
-1.9352807846012364e-06
-2.0279917144222113e-07
1.530925854794517e-06
3.239061372659145e-06
4.87796303284971e-06
6.392113546195093e-06
7.723358357234622e-06
8.821950283052119e-06
9.656424878574974e-06
1.0219649317907383e-05
1.0529346627304912e-05
1.0622718978765254e-05
1.0546197294690525e-05
1.0342578454506102e-05
1.0038646804165059e-05
9.636603007690678e-06
9.112089577223047e-06
8.420295368961607e-06
7.509728159592825e-06
6.341151090847396e-06
4.907398276414958e-06
3.2488393565991786e-06
1.459543483217012e-06
-3.191732339950736e-07
-1.918368449077629e-06
-3.171487267232059e-06
-3.94891896512954e-06
-4.18929795044395e-06
-3.919615662354572e-06
-3.258153431630793e-06
-2.397958922456415e-06
-1.5732129297104627e-06
-1.0151749704018262e-06
-9.072665941871777e-07
-1.3494179904023605e-06
-2.3398348672323653e-06
-3.7782853220913853e-06
-5.489881214028271e-06
-7.2634676035028025e-06
-8.895415844911557e-06
-1.0228694598818554e-05
-1.1178740158622506e-05
-1.1741311846170636e-05
-1.198212400957828e-05
-1.2012349375155052e-05
-1.1957043729179451e-05
-1.1924551576068348e-05
-1.1983953345006854e-05
-1.2155027742334395e-05
-1.2411789592757751e-05
-1.26973212827438e-05
-1.2945144823963037e-05
-1.310128272170513e-05
-1.3141528218973076e-05
-1.308001577513211e-05
-1.296744444458776e-05
-1.2879697379740325e-05
-1.289963865878126e-05
-1.3096220578782126e-05
-1.3505525871051664e-05
-1.4117967391453338e-05
-1.4874656830594197e-05
-1.567411991281644e-05
-1.6388371711032288e-05
-1.688527644749925e-05
-1.7052575788211447e-05
-1.6818413993155902e-05
-1.616386616060035e-05
-1.5124824429916684e-05
-1.3783202721565575e-05
-1.2250093896439421e-05
-1.0645472266189043e-05
-9.079657588175575e-06
-7.640823261060409e-06
-6.390639964376161e-06
-5.367432879339265e-06
-4.593908302140895e-06
-4.0853347006171115e-06
-3.854395929129264e-06
-3.910610699702618e-06
-4.254626965340884e-06
-4.870000497737301e-06
-5.7164290965754535e-06
-6.728316189874773e-06
-7.820953970359367e-06
-8.904046859799549e-06
-9.899607877081182e-06
-1.075938592794399e-05
-1.1476591955569547e-05
-1.2087967461195906e-05
-1.2664820031718623e-05
-1.329476364936281e-05
-1.40586105396914e-05
-1.50083560416506e-05
-1.615203517197731e-05
-1.7449459403043525e-05
-1.8819985551699025e-05
-2.0160349057569402e-05
-2.1368077512164824e-05
-2.2364735779628202e-05
-2.3113499159065353e-05
-2.362713217999288e-05
-2.3964856916085138e-05
-2.4219167289322226e-05
-2.4495784815914224e-05
-2.489125431704256e-05
-2.547297376304666e-05
-2.6265763629395255e-05
-2.7247584181933268e-05
-2.8355012424160207e-05
-2.9497005293144414e-05
-3.057374645003064e-05
-3.149637799897469e-05
-3.220337611153967e-05
-3.2670253492659484e-05
-3.2910954728299234e-05
-3.29713489697914e-05
-3.29170921327171e-05
-3.2819317637527865e-05
-3.274179522794889e-05
-3.273235717953482e-05
-3.2819843420279315e-05
-3.301609021086001e-05
-3.332112817252211e-05
-3.372913763296728e-05
-3.423292554482297e-05
-3.482556288974464e-05
-3.549900934969206e-05
-3.6240667778528795e-05
-3.702953885999792e-05
-3.783380988512781e-05
-3.861130345720777e-05
-3.9313382783500956e-05
-3.989191528734011e-05
-4.030801149306431e-05
-4.054069350705331e-05
-4.0593505866311035e-05
-4.0497353341188416e-05
-4.030846615147263e-05
-4.010126015325675e-05
-3.995686193114806e-05
-3.9949045176250944e-05
-4.013006835653373e-05
-4.051921063436861e-05
-4.10965490437437e-05
-4.180371238625983e-05
-4.255212060638327e-05
-4.3237791128230776e-05
-4.376042374720995e-05
-4.4043427832821076e-05
-4.4051065586694843e-05
-4.379910888430035e-05
-4.3356367771640896e-05
-4.2836008193165216e-05
-4.2377450330857136e-05
-4.2121447674623106e-05
-4.21822977610378e-05
-4.262172233806459e-05
-4.342865247960918e-05
-4.450806505118604e-05
-4.5680439015275945e-05
-4.6691727209111685e-05
-4.723233179330715e-05
-4.6962648762979294e-05
-4.5542344742786095e-05
-4.266053960469947e-05
-3.8064329731859045e-05
-3.15834690273516e-05
-2.314946373011963e-05
-1.2807813394841835e-05
-7.226256484652468e-07
1.2826698559953917e-05
2.7456631704421e-05
4.269820574203142e-05
5.8022718341856885e-05
7.287374822134409e-05
8.670431571391483e-05
9.901717930043568e-05
0.0001094050492697607
0.00011758621937789699
0.00012343028218291446
0.0001269687615794344
0.0001283870213453954
0.00012799664561965584
0.00012619113450780458
0.00012339136483660321
0.00011998985975293598
0.00011630367361524364
0.00011254422834732305
0.00010880892632704521
0.00010509462156233628
0.00010132829090092999
9.740679484622316e-05
9.323634982338765e-05
8.876345213576492e-05
8.399197074874269e-05
7.898494928508741e-05
7.385322141602053e-05
6.873540362215478e-05
6.377479683450767e-05
5.909828340410416e-05
5.480087028308434e-05
5.0937674396705944e-05
4.752339732151498e-05
4.453803339223566e-05
4.1936805276680746e-05
3.9662047207473405e-05
3.765480872796135e-05
3.586421875824675e-05
3.42531054113379e-05
3.279903829994753e-05
3.14908452439336e-05
3.0321655854845124e-05
2.9280430762629662e-05
2.8344474678610263e-05
2.7475368686064134e-05
2.66200054557399e-05
2.5717094959442085e-05
2.4707944090651456e-05
2.3548927455942773e-05
2.222228303009653e-05
2.074198729114375e-05
1.9152557349836008e-05
1.7520462255731853e-05
1.591990442585297e-05
1.4416429826732236e-05
1.3052599876973958e-05
1.1839542256967765e-05
1.0756689694158975e-05
9.759836209868116e-06
8.795397239037067e-06
7.817074709589572e-06
6.8004681405844294e-06
5.751724372280684e-06
4.707928980077879e-06
3.729157907487041e-06
2.8843073147461756e-06
2.2344018352025765e-06
1.8176366498840259e-06
1.6398245354844543e-06
1.672400718879425e-06
1.8581406324958574e-06
2.122828153643936e-06
2.389769701451979e-06
2.593584040909643e-06
2.6901614052454445e-06
2.6608941328312295e-06
2.5108749826200036e-06
2.2623047847246053e-06
1.945455670435506e-06
1.5899431247941035e-06
1.2186968628793529e-06
8.460049251831234e-07
4.796240942936934e-07
1.2560510755394442e-07
-2.0640630888520603e-07
-4.997569104132661e-07
-7.309242135961686e-07
-8.735619288758333e-07
-9.053450170266796e-07
-8.153931514543697e-07
-6.096759019254936e-07
-3.123071889540494e-07
3.8117158122045894e-08
3.9636136830911766e-07
7.20283024313619e-07
9.792638874292696e-07
1.1582090447275814e-06
1.2551334172856225e-06
1.2723658294111476e-06
1.2037296309381349e-06
1.0219662283961628e-06
6.714437137397678e-07
7.039520571473452e-08
-8.754329117435668e-07
-2.2492521873041713e-06
-4.0948574636842425e-06
-6.3909197700457334e-06
-9.035977471346386e-06
-1.1850306732047344e-05
-1.459694298832549e-05
-1.7019130106036856e-05
-1.888676901517144e-05
-2.004139929647754e-05
-2.0428837132856865e-05
-2.0111056905952065e-05
-1.9253681475336492e-05
-1.8091322603377744e-05
-1.687845650174159e-05
-1.5837101839060186e-05
-1.51133462515976e-05
-1.47525363083223e-05
-1.4698294291644487e-05
-1.4814682561608671e-05
-1.4925332420040428e-05
-1.4859587648260998e-05
-1.4494562226093237e-05
-1.3783618580873134e-05
-1.2765555254165504e-05
-1.1553665064612619e-05
-1.030852611807801e-05
-9.201817317128958e-06
-8.37991972284746e-06
-7.93541999134877e-06
-7.892218553262707e-06
-8.206464692784519e-06
-8.781850442397532e-06
-9.494712289623845e-06
-1.022253050007317e-05
-1.086909023304578e-05
-1.13807453444964e-05
-1.175057281571585e-05
-1.2010181250007624e-05
-1.2211895342467061e-05
-1.240633600218566e-05
-1.2621522725713719e-05
-1.2849242454664003e-05
-1.3042588165542935e-05
-1.312566415862179e-05
-1.3013179277958924e-05
-1.2634848984700595e-05
-1.195798168713643e-05
-1.1001826122142496e-05
-9.839241597366204e-06
-8.584547859690961e-06
-7.370133732537712e-06
-6.317511398625057e-06
-5.5101112845545176e-06
-4.974761371263623e-06
-4.676580702564123e-06
-4.528552603427992e-06
-4.4132743787463484e-06
-4.211322419645954e-06
-3.829136098929949e-06
-3.219691957850949e-06
-2.39134373893403e-06
-1.4033748414524914e-06
-3.501030498593528e-07
6.621044621073765e-07
1.5393702645761075e-06
2.221124998214972e-06
2.693303615485452e-06
2.9919405264387507e-06
3.1970871981955234e-06
3.418473290500865e-06
3.77529143602711e-06
4.372975447357102e-06
5.280024830347849e-06
6.507953558003482e-06
7.997366660227813e-06
9.612932768437312e-06
1.1149468333613614e-05
1.2350306090870881e-05
1.2937494583366202e-05
1.265124492064272e-05
1.1293706511612023e-05
8.770138935607763e-06
5.119509935925498e-06
5.270862985472913e-07
-4.686022220248667e-06
-1.0097384869050765e-05
-1.5237984319873073e-05
-1.9658743215165284e-05
-2.2997372499476323e-05
-2.503341431945899e-05
-2.5721322238476343e-05
-2.5195522794252305e-05
-2.374659483458873e-05
-2.1772771704386538e-05
-1.9714910298436877e-05
-1.798532500561702e-05
-1.690138320912908e-05
-1.663377332555467e-05
-1.7177270095818017e-05
-1.834893547613624e-05
-1.981516373396276e-05
-2.114492181555638e-05
-2.1882217268213178e-05
-2.1626815453957237e-05
-2.010940048263725e-05
-1.724672100722754e-05
-1.3164542852708055e-05
-8.18158595913238e-06
-2.7553151458863445e-06
2.6011060281903586e-06
7.414281658382902e-06
1.1338268283006903e-05
1.4215105112682124e-05
1.609441085611845e-05
1.7207494615796664e-05
1.790208975185104e-05
1.855320865344502e-05
1.9471266028894555e-05
2.0829027142896695e-05
2.2624022822201084e-05
2.468418463171975e-05
2.6713945815136954e-05
2.8368591316760852e-05
2.9338483855662e-05
2.9423259821885333e-05
2.8579294541622495e-05
2.6930649305346724e-05
2.4742487249503072e-05
2.2364436991562383e-05
2.015768667374911e-05
1.8422455291088235e-05
1.734151907147378e-05
1.6951126188387292e-05
1.7144057271983177e-05
1.770233795921281e-05
1.8350808667872396e-05
1.8818745156402174e-05
1.889576414495014e-05
1.84703819881199e-05
1.754417259098019e-05
1.622034265038253e-05
1.4671332220735453e-05
1.3094458456651615e-05
1.1666705665555312e-05
1.050913810902294e-05
9.668329141609461e-06
9.1175009256158e-06
8.774976944602433e-06
8.53337312372218e-06
8.290751622643335e-06
7.975255998876561e-06
7.557359869951763e-06
7.047948554304258e-06
6.484749144072459e-06
5.912841840238918e-06
5.366223958216421e-06
4.856409504977154e-06
4.3712680234607585e-06
3.883676615349905e-06
3.3662236170785044e-06
2.80619156131571e-06
2.214992585982064e-06
1.6281625625659843e-06
1.0953231703519908e-06
6.630945337713582e-07
3.5656483119892835e-07
1.6568704518406732e-07
4.1604242823831535e-08
-9.513990552035136e-08
-3.36263163944512e-07
-7.622300241392638e-07
-1.4201969539059566e-06
-2.309738813412739e-06
-3.3804781133020017e-06
-4.542339416741089e-06
-5.685598521663438e-06
-6.705268177464925e-06
-7.523411301654191e-06
-8.103885804993661e-06
-8.456400576022739e-06
-8.629794591957364e-06
-8.697227274349058e-06
-8.73775439293723e-06
-8.819193534814864e-06
-8.9863026408481e-06
-9.25648027437485e-06
-9.623000474999362e-06
-1.006379571925125e-05
-1.055248106354907e-05
-1.1067973296251273e-05
-1.159976633725913e-05
-1.2147483507188704e-05
-1.2715305897778692e-05
-1.3303685721648478e-05
-1.3901803580051038e-05
-1.4484125688877169e-05
-1.501313432994517e-05
-1.544822483344579e-05
-1.5758556496230754e-05
-1.5936042488187323e-05
-1.600421238404933e-05
-1.6019571769672214e-05
-1.6064086319714506e-05
-1.6229947196543774e-05
-1.6600073014525524e-05
-1.7229179394871253e-05
-1.8130283783481595e-05
-1.927018947604617e-05
-2.057518876635339e-05
-2.194561165838653e-05
-2.3275678666338998e-05
-2.4473987932554294e-05
-2.5480118539010666e-05
-2.6274091431588174e-05
-2.687731177459954e-05
-2.734553204912466e-05
-2.7755848488740078e-05
-2.8190545124031065e-05
-2.872074795289377e-05
-2.9392520767905747e-05
-3.0217442022948536e-05
-3.1169023334766166e-05
-3.2185641558611145e-05
-3.317992521383854e-05
-3.4053674623128717e-05
-3.4716376321364855e-05
-3.5104338844592455e-05
-3.519675251038726e-05
-3.502494260937168e-05
-3.4671987404650984e-05
-3.426165543942582e-05
-3.393790539368861e-05
-3.383841805270235e-05
-3.406723288949409e-05
-3.4672144549382923e-05
-3.5631909074457304e-05
-3.685658167637438e-05
-3.82017487515997e-05
-3.9494518748037126e-05
-4.0566513489114975e-05
-4.128735388566822e-05
-4.1591701166526365e-05
-4.1493967705418284e-05
-4.108720136293924e-05
-4.052591198497934e-05
-3.9996045495221266e-05
-3.967812227935283e-05
-3.971105134745003e-05
-4.0163929246944605e-05
-4.102129374295753e-05
-4.218432705537965e-05
-4.348717975142186e-05
-4.472473787989886e-05
-4.568638795311863e-05
-4.618987728824266e-05
-4.611006658534226e-05
-4.539880508923152e-05
-4.4093815613691344e-05
-4.2315935294704075e-05
-4.025511276755029e-05
-3.8146268607619454e-05
-3.623673918118427e-05
-3.4747850062435344e-05
-3.383437162312541e-05
-3.35470773103566e-05
-3.3804904847951195e-05
-3.438363564561023e-05
-3.492690248481262e-05
-3.498238579058288e-05
-3.406150407041952e-05
-3.1715586440559705e-05
-2.7616703444428224e-05
-2.1628395610159822e-05
-1.3851558347721035e-05
-4.634153046418793e-06
5.460210516664527e-06
1.5721710323536055e-05
2.5390731256516026e-05
3.3764343908491925e-05
4.02935177786473e-05
4.465344184203918e-05
4.677475777298939e-05
4.6831440164650604e-05
4.518969346747877e-05
4.232966773910185e-05
3.875644134577313e-05
3.491767982856263e-05
3.1142636295072344e-05
2.761154784143649e-05
2.4357463254233884e-05
2.129579728729662e-05
1.8271928961026892e-05
1.5114869684472622e-05
1.1685604624966089e-05
7.911626945898696e-06
3.803412134041857e-06
-5.470729098658126e-07
-4.982285548732731e-06
-9.303979712998274e-06
-1.3301279237463915e-05
-1.6777224513786596e-05
-1.9570788122365578e-05
-2.1573077586948247e-05
-2.273762149126271e-05
-2.3085044311429366e-05
-2.270220794486057e-05
-2.1735423772871318e-05
-2.0377082247069383e-05
-1.884536153381375e-05
-1.7357677302591945e-05
-1.6100044272741386e-05
-1.5196103923694235e-05
-1.4680683589433516e-05
-1.4482931507344727e-05
-1.4423130190169984e-05
-1.4225367236410406e-05
-1.3545738753120424e-05
-1.2013190756981837e-05
-9.277953861434177e-06
-5.061155802235336e-06
8.012068906203858e-07
8.326180412829181e-06
1.7368467277783687e-05
2.7624507245680533e-05
3.865635011014208e-05
4.993306383141439e-05
6.08849659222327e-05
7.096394004892892e-05
7.970183630813158e-05
8.67587637216156e-05
9.195417685372677e-05
9.527605478362765e-05
9.686692546980794e-05
9.698946315611512e-05
9.597810024598497e-05
9.418568349892263e-05
9.193495832691325e-05
8.948327329104614e-05
8.700559762850111e-05
8.459651604804172e-05
8.228744059966681e-05
8.007202871241596e-05
7.793156870506215e-05
7.585315247545499e-05
7.383640677465677e-05
7.188849411510123e-05
7.001088512010079e-05
6.818398806967475e-05
6.635638788514847e-05
6.444402111409393e-05
6.234152029491902e-05
5.994411642615451e-05
5.717502919572282e-05
5.4011213869420825e-05
5.050026047842513e-05
4.676316214987646e-05
4.298103164487306e-05
3.936772143435353e-05
3.613367878056147e-05
3.344842851591781e-05
3.1409400400120087e-05
3.002342901900828e-05
2.9204550502390536e-05
2.8788335992193587e-05
2.8559662778856153e-05
2.8288224373648754e-05
2.7764763729437436e-05
2.683124875664549e-05
2.539990246592016e-05
2.3458698752408675e-05
2.1063944931256686e-05
1.8323151999912867e-05
1.5372958653808535e-05
1.2357147685735156e-05
9.408851012741659e-06
6.639255773324963e-06
4.133042436513748e-06
1.9489799925248967e-06
1.2304730396194789e-07
-1.3285981302187396e-06
-2.4085710461678255e-06
-3.1393927182868062e-06
-3.5655527833249233e-06
-3.754279597020241e-06
-3.7927551544595875e-06
-3.780415410258134e-06
-3.8165403837725485e-06
-3.9850569087212114e-06
-4.339794932386596e-06
-4.893909307422252e-06
-5.616591547530088e-06
-6.438646147574477e-06
-7.266390425531604e-06
-8.00124357921303e-06
-8.560890675916609e-06
-8.897443163767798e-06
-9.00867125701738e-06
-8.939953082747245e-06
-8.776647859132347e-06
-8.628642061841705e-06
-8.610370192427982e-06
-8.8203601208545e-06
-9.32419667776786e-06
-1.0143858031679847e-05
-1.1254947890918227e-05
-1.2591780828962244e-05
-1.405890007334179e-05
-1.5546641328568844e-05
-1.694791376965284e-05
-1.8173453754311364e-05
-1.9163330569558756e-05
-1.9893301160437704e-05
-2.0375558080428245e-05
-2.0654333244117897e-05
-2.079756627997644e-05
-2.088630731140267e-05
-2.1003639881478836e-05
-2.122468905580759e-05
-2.1608800126646495e-05
-2.2194373077615057e-05
-2.299629504309221e-05
-2.4005595739252893e-05
-2.5190941614804264e-05
-2.6501817875400058e-05
-2.7873519739664534e-05
-2.9234137992797078e-05
-3.051341869713785e-05
-3.165272236175256e-05
-3.2614517556372735e-05
-3.338925877616185e-05
-3.399746305266295e-05
-3.448552291247771e-05
-3.4915235569510256e-05
-3.534885869085618e-05
-3.583315590935887e-05
-3.638674178660852e-05
-3.699462982946423e-05
-3.7612178434079285e-05
-3.817803610128615e-05
-3.863297855432711e-05
-3.893956994638873e-05
-3.90970302078261e-05
-3.914678752999852e-05
-3.91666681623143e-05
-3.925482371145788e-05
-3.950739571528348e-05
-3.999570201121653e-05
-4.074885738520974e-05
-4.1746165778624514e-05
-4.292080301598603e-05
-4.417306185752316e-05
-4.538867701474621e-05
-4.6456267904858065e-05
-4.727818126548952e-05
-4.777098995231633e-05
-4.785514970614648e-05
-4.7436997880126e-05
-4.6389376413915946e-05
-4.453872239034889e-05
-4.166586963026272e-05
-3.7524959374627926e-05
-3.188031195657972e-05
-2.4555957622310762e-05
-1.548814594101492e-05
-4.768843065170581e-06
7.331197911038633e-06
2.0367674392354593e-05
3.37584056262604e-05
4.6844962490096644e-05
5.8969979730486705e-05
6.955634066796073e-05
7.817402602810479e-05
8.45831876109324e-05
8.874715271413875e-05
9.081523524807612e-05
9.108092452105069e-05
8.992500795360069e-05
8.77547780074573e-05
8.494964640236711e-05
8.18207731950444e-05
7.858859017094205e-05
7.537830582545954e-05
7.223040772595592e-05
6.912130299282376e-05
6.598868801736891e-05
6.275683977430353e-05
5.935837854077446e-05
5.575065485729523e-05
5.192626469004899e-05
4.791795964243389e-05
4.3798338140043536e-05
3.967442802894674e-05
3.5677049732002375e-05
3.1945123313539454e-05
2.860605565623063e-05
2.5754828441089266e-05
2.343584242443389e-05
2.163222791768959e-05
2.026662284479538e-05
1.9215203286096996e-05
1.833344997896304e-05
1.7488651814505e-05
1.659159513723781e-05
1.5619215120675336e-05
1.4621634017416131e-05
1.3710709985525367e-05
1.3032016119069822e-05
1.2726701933445538e-05
1.2892623970237486e-05
1.3554587378656353e-05
1.4651356669998551e-05
1.6042859123708284e-05
1.753585982961639e-05
1.8921701492161574e-05
2.0016708876835066e-05
2.0695339539799733e-05
2.090824347714219e-05
2.068149927535748e-05
2.0098296354912767e-05
1.9268860742167868e-05
1.829724404255999e-05
1.725397345190174e-05
1.6161466490844322e-05
1.4995233096002394e-05
1.3699392820320928e-05
1.221120801093103e-05
1.0487179017343541e-05
8.523232042430216e-06
6.3635124398782496e-06
4.09562268799024e-06
1.8338620919218566e-06
-3.048544426302162e-07
-2.2259717374588282e-06
-3.876733686791708e-06
-5.255307273662106e-06
-6.4076099924653625e-06
-7.413033848757678e-06
-8.362978739184546e-06
-9.337697009315618e-06
-1.038706561048258e-05
-1.1519610876716796e-05
-1.2701844992761405e-05
-1.3867375023000716e-05
-1.4932978960705007e-05
-1.5817429938884046e-05
-1.6458560982452386e-05
-1.682488148326038e-05
-1.691970540424039e-05
-1.6777771763309152e-05
-1.6456199747284745e-05
-1.602284013821309e-05
-1.5545345692351366e-05
-1.5083543819107482e-05
-1.4686230472244453e-05
-1.4391832705280682e-05
-1.4231085051117871e-05
-1.4229354946826932e-05
-1.4406669054452515e-05
-1.477466234171538e-05
-1.533118635389501e-05
-1.605464486965688e-05
-1.6900772731086665e-05
-1.7804224703021605e-05
-1.8686010944675542e-05
-1.9465890132284786e-05
-2.0076968029789963e-05
-2.047864997355776e-05
-2.0664229561469603e-05
-2.0660792576381416e-05
-2.052133084707818e-05
-2.0311242809780592e-05
-2.009297665490587e-05
-1.9912949983610577e-05
-1.9793996479913472e-05
-1.9734811476736807e-05
-1.9715817593480833e-05
-1.9709185125339988e-05
-1.9689860971476775e-05
-1.9644531503436102e-05
-1.9576333269129325e-05
-1.9504496225200194e-05
-1.945953763066816e-05
-1.947573140422154e-05
-1.9583095313702967e-05
-1.9800992846528394e-05
-2.0134759627512945e-05
-2.0575798880632876e-05
-2.1104656866513815e-05
-2.169594732051493e-05
-2.2323778589561885e-05
-2.2966522883319274e-05
-2.361018991707891e-05
-2.4250109618036775e-05
-2.4890930843583536e-05
-2.5545075667533315e-05
-2.622983830902631e-05
-2.696340306005807e-05
-2.7760238750001284e-05
-2.862657579980437e-05
-2.955687948051346e-05
-3.053227096532378e-05
-3.152161837611397e-05
-3.2485501133725295e-05
-3.338252714466752e-05
-3.417674602555746e-05
-3.48444053484819e-05
-3.537826214312841e-05
-3.578817700835577e-05
-3.609767749749463e-05
-3.633729989105791e-05
-3.653644587783318e-05
-3.6715922435537876e-05
-3.6883138068068574e-05
-3.7031187690285926e-05
-3.714202409009261e-05
-3.71929028439254e-05
-3.716455790399824e-05
-3.704923448748504e-05
-3.685675176698963e-05
-3.661710078107396e-05
-3.637863152356522e-05
-3.6201620733501676e-05
-3.614791097852649e-05
-3.626827374814488e-05
-3.6589973149612405e-05
-3.710742447278937e-05
-3.777861213840183e-05
-3.8528952144716635e-05
-3.9262674184873196e-05
-3.987991028672202e-05
-4.029601947742293e-05
-4.04587675711636e-05
-4.035916019398329e-05
-4.0033028087915675e-05
-3.955258614062717e-05
-3.90096002797154e-05
-3.8493900584951935e-05
-3.807225284328074e-05
-3.7772701075554466e-05
-3.7578335275096204e-05
-3.7432248679479966e-05
-3.725274629953955e-05
-3.695533367199627e-05
-3.647629605181752e-05
-3.579219229457437e-05
-3.4930430961982774e-05
-3.396805239129018e-05
-3.3018462793313384e-05
-3.220858830312117e-05
-3.1651164865912405e-05
-3.141817779462137e-05
-3.152151627845035e-05
-3.190564560653705e-05
-3.245470845138902e-05
-3.301338650408892e-05
-3.341773564514068e-05
-3.352978389175618e-05
-3.326856608286271e-05
-3.263076667254269e-05
-3.1696151952574685e-05
-3.061603756400302e-05
-2.9586489848472875e-05
-2.8811098333704487e-05
-2.8460378895191706e-05
-2.863575302084781e-05
-2.9345409438265923e-05
-3.0497263217171285e-05
-3.191102565172381e-05
-3.3347658514314724e-05
-3.455092736178157e-05
-3.529313219835783e-05
-3.5415995828991465e-05
-3.4858462741958084e-05
-3.366572829354976e-05
-3.1977665594966325e-05
-2.999909798847849e-05
-2.7958111713578233e-05
-2.6060981343690162e-05
-2.4452787520959654e-05
-2.319137607379492e-05
-2.223930618478942e-05
-2.147456310865866e-05
-2.0716931745398775e-05
-1.976386795358673e-05
-1.8428072362004525e-05
-1.6569033757372077e-05
-1.4112464282744396e-05
-1.1054391039083668e-05
-7.450100980348849e-06
-3.3914728594125334e-06
1.0212159433754393e-06
5.705730949772437e-06
1.0615802334023692e-05
1.5745913644881118e-05
2.1121670498648495e-05
2.677816086662801e-05
3.2731876748748664e-05
3.895359906003952e-05
4.534968914320469e-05
5.175744308926958e-05
5.795694090588452e-05
6.369789776744775e-05
6.87363257759069e-05
7.287325877032372e-05
7.598706044339945e-05
7.805216474099911e-05
7.914017793367706e-05
7.940331859917403e-05
7.904415397680697e-05
7.827852575593999e-05
7.729976653553269e-05
7.625157533734787e-05
7.521452979902837e-05
7.420783773385392e-05
7.320442117806313e-05
7.215457508377929e-05
7.101182516818139e-05
6.975450793039867e-05
6.839797955211912e-05
6.699488854192294e-05
6.56240171472384e-05
6.437106367945599e-05
6.330669312123556e-05
6.246774326510835e-05
6.184652053523683e-05
6.139094286491918e-05
6.101549645548579e-05
6.06203075680259e-05
6.0113738555745145e-05
5.943319984179268e-05
5.855941650302874e-05
5.752099635389064e-05
5.638839111689305e-05
5.525868648460925e-05
5.423458022336215e-05
5.340202220758784e-05
5.2811113262690574e-05
5.24640293592264e-05
5.231218804030355e-05
5.226297786332456e-05
5.219455276159983e-05
5.197581468837065e-05
5.1487978271229896e-05
5.064405647680517e-05
4.940311578438168e-05
4.7777056585337e-05
4.582882436507943e-05
4.366223063416727e-05
4.140485524490438e-05
3.918668027646399e-05
3.7117982149930636e-05
3.5270364236380816e-05
3.3664469253978355e-05
3.226682226643645e-05
3.099656765930064e-05
2.9740914709548045e-05
2.8376346147353982e-05
2.679150368108621e-05
2.490742171021417e-05
2.2691473641438197e-05
2.016282052279006e-05
1.738894229825859e-05
1.4474575610448107e-05
1.1545721986671944e-05
8.732082160784653e-06
6.151209551192014e-06
3.896904755212635e-06
2.0330946180640236e-06
5.929773599054103e-07
-4.1805709744472446e-07
-1.0179682869829298e-06
-1.24430412788052e-06
-1.1525953639593504e-06
-8.170129974433138e-07
-3.3191190156251206e-07
1.8817278833429862e-07
6.126551044737471e-07
8.047802985847837e-07
6.370685560528507e-07
1.0032133512181659e-08
-1.1297735053825028e-06
-2.776908282674348e-06
-4.8632423276613966e-06
-7.265107955849344e-06
-9.820734146811717e-06
-1.2354722084472152e-05
-1.4704512913240824e-05
-1.674327519928608e-05
-1.839455651546853e-05
-1.963614111609828e-05
-2.049324007974274e-05
-2.102366970787102e-05
-2.1299377569581453e-05
-2.138913515289408e-05
-2.13463686088885e-05
-2.1204246313527174e-05
-2.09778639385274e-05
-2.0671353785483472e-05
-2.0286584927797738e-05
-1.9830116484079592e-05
-1.9316130081462406e-05
-1.8764752900417418e-05
-1.819685991422334e-05
-1.7627551867689248e-05
-1.7060758131964914e-05
-1.6486861589630822e-05
-1.588418465090384e-05
-1.5223999315105736e-05
-1.4477771957909065e-05
-1.3624845365269149e-05
-1.2658764924124814e-05
-1.1590894921759374e-05
-1.0450664870098935e-05
-9.2825270150569e-06
-8.14032614563803e-06
-7.080180854143378e-06
-6.153113274348731e-06
-5.398552816468924e-06
-4.8395337989535295e-06
-4.480004668905759e-06
-4.304290290241375e-06
-4.278506240372285e-06
-4.3536594440382505e-06
-4.470237340434335e-06
-4.56417125115418e-06
-4.574025949946592e-06
-4.449032160299764e-06
-4.157152809708818e-06
-3.6918812208805435e-06
-3.076126212270992e-06
-2.361588591768852e-06
-1.6226424034267345e-06
-9.448837340141663e-07
-4.0994222300377146e-07
-7.942696190246395e-08
1.8454985625901855e-08
-1.0370468925535748e-07
-3.932872144052694e-07
-7.669850162013697e-07
-1.1270803169643097e-06
-1.3812731736380147e-06
-1.4616399471543428e-06
-1.338333524503266e-06
-1.0247719437858622e-06
-5.730393136861645e-07
-6.054991530055906e-08
4.288725064317448e-07
8.24991073838454e-07
1.0874561555998489e-06
1.2145678728740132e-06
1.2425702553041568e-06
1.2359433278351758e-06
1.271386721080507e-06
1.4196398419754634e-06
1.7296011867933524e-06
2.218384353243955e-06
2.869283457054457e-06
3.6375934722165886e-06
4.462344878706459e-06
5.280694253659152e-06
6.0412509615484305e-06
6.713104469297028e-06
7.288594410199451e-06
7.779567363166446e-06
8.20852404128737e-06
8.597268970874801e-06
8.956181058056111e-06
9.276953847084012e-06
9.530691909011729e-06
9.67182254256796e-06
9.646745380607507e-06
9.404913510961325e-06
8.909472302123473e-06
8.144835284423499e-06
7.1195468917571985e-06
5.8641410545943126e-06
4.42502126581628e-06
2.856276699027783e-06
1.2115889417091707e-06
-4.6202657244053063e-07
-2.1277566850072867e-06
-3.759885918987266e-06
-5.342873190420278e-06
-6.869709518998064e-06
-8.340425887856257e-06
-9.76103752620433e-06
-1.1142571036533955e-05
-1.249943559749724e-05
-1.384646187448596e-05
-1.5194434151484146e-05
-1.6544682288365362e-05
-1.788397945900743e-05
-1.9181335001860204e-05
-2.0388133905759743e-05
-2.144247282076876e-05
-2.22776224972628e-05
-2.2833519584983355e-05
-2.3069284624881544e-05
-2.2974193202374147e-05
-2.2574468212884175e-05
-2.1933803581062736e-05
-2.1146632490652416e-05
-2.032462401432881e-05
-1.957842180990442e-05
-1.8997880349663222e-05
-1.8634709508798045e-05
-1.8491317488014953e-05
-1.8518695737549113e-05
-1.8624528615752418e-05
-1.869061567513346e-05
-1.85965937314772e-05
-1.8245336190002255e-05
-1.7584727399430633e-05
-1.6621005823544564e-05
-1.5420502103682645e-05
-1.4099030761938346e-05
-1.2800872624568243e-05
-1.1671576756409315e-05
-1.0830168440764217e-05
-1.0346454561644704e-05
-1.0227967838144808e-05
-1.0419000275023385e-05
-1.0811667490217614e-05
-1.1266585456136318e-05
-1.1638988302771604e-05
-1.180524439288767e-05
-1.1684823065950976e-05
-1.1253753610556267e-05
-1.0547302896707952e-05
-9.651675468628243e-06
-8.68662501789073e-06
-7.782545666006806e-06
-7.0565348393726055e-06
-6.591900461739818e-06
-6.4246623236954245e-06
-6.539020056830502e-06
-6.87190982391731e-06
-7.325061726802938e-06
-7.78175227706205e-06
-8.124937800032377e-06
-8.25368903261818e-06
-8.09567470788583e-06
-7.61458223014151e-06
-6.812489578739879e-06
-5.728026586865663e-06
-4.4315092284034535e-06
-3.018082947292677e-06
-1.5994343075664951e-06
-2.941255840510108e-07
7.8360073480548e-07
1.5364160767328958e-06
1.8970342694808796e-06
1.8401060886302235e-06
1.3904352899464236e-06
6.249931144184277e-07
-3.3306535868844906e-07
-1.3286991992244636e-06
-2.1960105916115466e-06
-2.782642458183031e-06
-2.973086870915079e-06
-2.7064097246469944e-06
-1.984966995554761e-06
-8.725704026609584e-07
5.172709863849372e-07
2.040524358463426e-06
3.545541674242538e-06
4.89571610145495e-06
5.988343977466101e-06
6.767078449570306e-06
7.226497920577734e-06
7.408472607909436e-06
7.391116428455067e-06
7.272131043340324e-06
7.149227433889317e-06
7.100913485866319e-06
7.171075826347859e-06
7.36030765489968e-06
7.625821342690189e-06
7.890194782744828e-06
8.057446458390686e-06
8.033399932130728e-06
7.746340663589203e-06
7.163827851649244e-06
6.3022597421092085e-06
5.227246200671653e-06
4.04467538124456e-06
2.884144385259737e-06
1.8777777345446277e-06
1.1381571308040533e-06
7.390956645190218e-07
7.024263018012591e-07
9.930238227295756e-07
1.523107511396234e-06
2.1655803760149264e-06
2.7748089290465137e-06
3.2119200708783883e-06
3.3705582208845963e-06
3.1983728779732937e-06
2.7096045818648874e-06
1.9852495810549668e-06
1.159445726772485e-06
3.9364555535401075e-07
-1.5679919286980665e-07
-3.7665658336006257e-07
-2.175772296150998e-07
2.8918190624165165e-07
1.0378865196856644e-06
1.8708955591690066e-06
2.613855044166501e-06
3.1153255026875714e-06
3.2813119362095004e-06
3.0963027604943244e-06
2.6257831216781392e-06
1.999861481649351e-06
1.3823501061565653e-06
9.331012639916321e-07
7.727516553388226e-07
9.580245082031265e-07
1.4727772304420787e-06
2.2359276655382657e-06
3.1233147973468926e-06
3.997447308535304e-06
4.737653107842923e-06
5.263597714818409e-06
5.547244871553681e-06
5.611463271551447e-06
5.516809892953394e-06
5.340721399722947e-06
5.154803929876972e-06
5.0058619227121975e-06
4.90488593385294e-06
4.8259093300652e-06
4.714112313453845e-06
4.5004530915148695e-06
4.118908506365225e-06
3.5222957692164702e-06
2.6935133170154804e-06
1.6505324896177472e-06
4.451108518753885e-07
-8.434887279473288e-07
-2.1178203774304596e-06
-3.272717438828903e-06
-4.205591929734642e-06
-4.8260668821735615e-06
-5.0650334287897866e-06
-4.883305276886064e-06
-4.279520327067807e-06
-3.2960301621570554e-06
-2.020700158918531e-06
-5.823583475108582e-07
8.615743069986257e-07
2.145002962600437e-06
3.118117882569687e-06
3.6728383992428925e-06
3.7630649996925725e-06
3.4143862254761123e-06
2.719789193406767e-06
1.8210672450289638e-06
8.792454163763062e-07
4.0446814139421046e-08
-5.947656304068175e-07
-9.910187955756953e-07
-1.1817542483960115e-06
-1.2559134608394362e-06
-1.3311671991370976e-06
-1.5207496724503703e-06
-1.9026893710740562e-06
-2.4996038707269766e-06
-3.274371166884588e-06
-4.142649546135847e-06
-4.998570300852811e-06
-5.746268059595311e-06
-6.328280944391766e-06
-6.7427167328968545e-06
-7.04419938466604e-06
-7.328106538528794e-06
-7.702237751231807e-06
-8.253557537598467e-06
-9.019105590376176e-06
-9.96919013428287e-06
-1.100785225004243e-05
-1.1991134067705535e-05
-1.2759050986410685e-05
-1.3173535825043522e-05
-1.3152916309842498e-05
-1.269416487291286e-05
-1.1877095827976239e-05
-1.084917333173802e-05
-9.794493478792109e-06
-8.894524878435992e-06
-8.290251038107047e-06
-8.054893860503553e-06
-8.183535410111503e-06
-8.601472529389401e-06
-9.188257391506404e-06
-9.81043204059624e-06
-1.0354029020777158e-05
-1.0748470874599697e-05
-1.0976308978528236e-05
-1.1067403563338842e-05
-1.1080435910271e-05
-1.1077897092370735e-05
-1.1102132121096219e-05
-1.1159381172491551e-05
-1.1216319172366351e-05
-1.1210030782291256e-05
-1.1068591422220547e-05
-1.0736412857760596e-05
-1.0197026283282124e-05
-9.486422119174225e-06
-8.692380654864618e-06
-7.938877950531346e-06
-7.358735121830148e-06
-7.061123928134838e-06
-7.1023730121640465e-06
-7.46813707467797e-06
-8.072371563761003e-06
-8.77430405928307e-06
-9.409816842587493e-06
-9.82966586447433e-06
-9.934901209769398e-06
-9.700353032414366e-06
-9.180025762999661e-06
-8.492919903559857e-06
-7.792899437519473e-06
-7.2303366277532774e-06
-6.915265770502414e-06
-6.891143867886314e-06
-7.125287743864914e-06
-7.51754814974995e-06
-7.924090667890285e-06
-8.1895590870829e-06
-8.179284152260346e-06
-7.803846937309523e-06
-7.030872430639119e-06
-5.882610633302676e-06
-4.421628082256301e-06
-2.729789083620313e-06
-8.869456022350567e-07
1.0448603433895189e-06
3.0280518885595845e-06
5.046400770410685e-06
7.0944115912668e-06
9.163462244480176e-06
1.1229538564089413e-05
1.3246546592752554e-05
1.5147267129193798e-05
1.6851673835701208e-05
1.8280260771445244e-05
1.936875409639819e-05
2.008036783661543e-05
2.0412556205741628e-05
2.0396728744278195e-05
2.0091200935157694e-05
1.9569286173233102e-05
1.8905499680908222e-05
1.8163108495161652e-05
1.7385704127265334e-05
1.659428538226606e-05
1.5789866521878584e-05
1.4960287772832201e-05
1.4089064734680852e-05
1.3163957020428948e-05
1.2183409861061245e-05
1.1159868928953814e-05
1.0119854826121813e-05
9.10134063960347e-06
8.149286782205228e-06
7.31019044193027e-06
6.626335395686945e-06
6.130231770504434e-06
5.839625314165235e-06
5.753477329136966e-06
5.8494441356344835e-06
6.083529328382277e-06
6.392612973318746e-06
6.7003520410322205e-06
6.9264267521395215e-06
6.998312055727619e-06
6.863836200567589e-06
6.502008676527183e-06
5.929272956643797e-06
5.198744031603282e-06
4.391241415538448e-06
3.5988634415844525e-06
2.9040059022830616e-06
2.358453556759963e-06
1.9678386390291935e-06
1.6860002591376274e-06
1.4216437140540678e-06
1.0566756748681385e-06
4.724832734723097e-07
-4.218694413553199e-07
-1.6663165146878958e-06
-3.2370651994109164e-06
-5.047581215313009e-06
-6.962967703710818e-06
-8.824174133922173e-06
-1.0476296259919054e-05
-1.1794648460491061e-05
-1.2703335750584392e-05
-1.3183306539944494e-05
-1.326962457178511e-05
-1.3040179632971924e-05
-1.2599616337717461e-05
-1.2062561598144601e-05
-1.153934225743996e-05
-1.1125752264477493e-05
-1.0896718108653844e-05
-1.0902552149420327e-05
-1.116623751538002e-05
-1.1680833770658003e-05
-1.2407266107973922e-05
-1.327391340767362e-05
-1.4180004596191723e-05
-1.5004519888800901e-05
-1.5621035050698223e-05
-1.5917051348817617e-05
-1.5814411850645772e-05
-1.5286120724849153e-05
-1.4364841262624162e-05
-1.3139789552510219e-05
-1.1741424175427054e-05
-1.0316561919874037e-05
-8.999362282329946e-06
-7.885094185833308e-06
-7.013161631787613e-06
-6.3635379316769985e-06
-5.867171630995539e-06
-5.4271424303411265e-06
-4.944512705680478e-06
-4.341799040081994e-06
-3.5780616899465148e-06
-2.6523935132652864e-06
-1.596163282414754e-06
-4.575868439917031e-07
7.159187392610773e-07
1.8920908923001813e-06
3.0610182181670906e-06
4.233959462228133e-06
5.43528755382109e-06
6.690991413171331e-06
8.017795273722276e-06
9.416244200058855e-06
1.0869445255628991e-05
1.2347177613581554e-05
1.381343347105875e-05
1.5234584892003227e-05
1.658546190542573e-05
1.785154802229895e-05
1.902689799302036e-05
2.0108806793361232e-05
2.1091295448195726e-05
2.195986075843605e-05
2.2689590159940877e-05
2.324778905661974e-05
2.3600971020779237e-05
2.3724758365769256e-05
2.3614258001754033e-05
2.3292061664566092e-05
2.281129612004413e-05
2.2252102944112293e-05
2.171139555014003e-05
2.128741971892851e-05
2.106213068277437e-05
2.1085276703195054e-05
2.1364028096349677e-05
2.1860914957609633e-05
2.250093659081792e-05
2.3186455930522724e-05
2.3816510625268824e-05
2.430602620211614e-05
2.4600448638599037e-05
2.468254192548797e-05
2.4570203631045596e-05
2.4306559891003556e-05
2.394562217430287e-05
2.353782310613896e-05
2.3119482411788376e-05
2.2708772833541242e-05
2.2308539541377674e-05
2.191410337818324e-05
2.1522678490019652e-05
2.1140729973042124e-05
2.078653320689857e-05
2.0486993831983923e-05
2.0269799421717387e-05
2.015353032138952e-05
2.0138992110859038e-05
2.020462117396807e-05
2.0307578797813043e-05
2.039053531279079e-05
2.0392646012925104e-05
2.026221202360293e-05
1.9968184110517246e-05
1.950799539139425e-05
1.891004751337575e-05
1.823029366570864e-05
1.7543514270023333e-05
1.6930854816443225e-05
1.6465840202936443e-05
1.620131328403778e-05
1.615954567941318e-05
1.6327179123551642e-05
1.6655792624195786e-05
1.7067934453812937e-05
1.7467603244962826e-05
1.775355488204252e-05
1.7833510112542576e-05
1.7637318240027267e-05
1.7127322693542508e-05
1.6304496605477435e-05
1.5209326398744319e-05
1.3916929471833501e-05
1.2526547219011891e-05
1.114638593428538e-05
9.87572712358984e-06
8.787116030900182e-06
7.911987547781942e-06
7.233009959803129e-06
6.685523823843078e-06
6.168743569293862e-06
5.565174102170081e-06
4.764529172082056e-06
3.6869853517624325e-06
2.300406881560264e-06
6.274313248879165e-07
-1.2592454977467221e-06
-3.25207261410599e-06
-5.230392324112534e-06
-7.083285798957074e-06
-8.728111961661901e-06
-1.0120860118251722e-05
-1.1256914057707298e-05
-1.2163462355725571e-05
-1.2886798231804553e-05
-1.347860312790454e-05
-1.3984882585014757e-05
-1.443981417035833e-05
-1.4864935697812122e-05
-1.527245195840496e-05
-1.567041622869413e-05
-1.6067339164576846e-05
-1.647433714146966e-05
-1.690401990830053e-05
-1.7366587787353688e-05
-1.786467398608522e-05
-1.8388992635349596e-05
-1.891666653412908e-05
-1.941327697877839e-05
-1.9838488242518127e-05
-2.0153946964549e-05
-2.0331400630805415e-05
-2.035883132916767e-05
-2.0242887082476692e-05
-2.0006873729267764e-05
-1.9684787622050472e-05
-1.931300183783085e-05
-1.8921945952864495e-05
-1.853020383285543e-05
-1.814282071481048e-05
-1.7754393169674484e-05
-1.7356034546600343e-05
-1.694399369834039e-05
-1.6526978563043e-05
-1.612938893666737e-05
-1.578874504581088e-05
-1.554736714781547e-05
-1.5440316547217462e-05
-1.548312807739634e-05
-1.5663398179181964e-05
-1.5939554462178106e-05
-1.624822348776051e-05
-1.651903092673971e-05
-1.669317672165675e-05
-1.674052555100795e-05
-1.6669814838880248e-05
-1.652807154346666e-05
-1.638813130821075e-05
-1.632655195219718e-05
-1.6397272203230885e-05
-1.6608182415928087e-05
-1.690772799254228e-05
-1.718661533528711e-05
-1.7296040795698727e-05
-1.7079497831136195e-05
-1.64112846415041e-05
-1.5232447656889089e-05
-1.3574818820821572e-05
-1.1566204842881671e-05
-9.414145858955775e-06
-7.37088608646448e-06
-5.686921758545782e-06
-4.563459977210609e-06
-4.114550589647027e-06
-4.3474253544606186e-06
-5.165264792255782e-06
-6.391315696563941e-06
-7.808346744390583e-06
-9.20408402753529e-06
-1.0412292136578132e-05
-1.1340696218504916e-05
-1.198047026264451e-05
-1.2396575357799067e-05
-1.2702663676062459e-05
-1.3027530636073323e-05
-1.3481517590635684e-05
-1.4130644058348298e-05
-1.49838676736688e-05
-1.5995388778815936e-05
-1.7080191885202107e-05
-1.8137918329785587e-05
-1.907840330228598e-05
-1.9842186154499466e-05
-2.0410995063861657e-05
-2.0806142666755414e-05
-2.107612007050459e-05
-2.1277494810603464e-05
-2.1454738052456236e-05
-2.1624488488349368e-05
-2.1768175893063466e-05
-2.1834454726672137e-05
-2.1750296498963992e-05
-2.1437551871891923e-05
-2.083076993259756e-05
-1.9892185945563687e-05
-1.8620888711505064e-05
-1.705485048363756e-05
-1.5266229818752647e-05
-1.335166586415573e-05
-1.1419883197642659e-05
-9.578796540749555e-06
-7.923669902567768e-06
-6.5271203791941654e-06
-5.431240977155483e-06
-4.642072896155172e-06
-4.127044500423701e-06
-3.816506406654609e-06
-3.610691414750243e-06
-3.392950224352317e-06
-3.048853916898995e-06
-2.488949517039397e-06
-1.6711398713288964e-06
-6.175055703876286e-07
5.795237510258044e-07
1.765146051740974e-06
2.7449088323733565e-06
3.319225406878653e-06
3.3234726723656917e-06
2.6654136041202547e-06
1.351508296650673e-06
-5.044626019750257e-07
-2.6934879415981797e-06
-4.942708351316596e-06
-6.960372471319241e-06
-8.485539158549818e-06
-9.332530984321987e-06
-9.421195431303434e-06
-8.787030928863404e-06
-7.569466529310023e-06
-5.981085466937208e-06
-4.264396250514014e-06
-2.6451282209944452e-06
-1.2915319812647072e-06
-2.877338728837576e-07
3.738741679365151e-07
7.803133181518343e-07
1.0691325429415738e-06
1.389869640065214e-06
1.8648190340927574e-06
2.5581426143921126e-06
3.4603879133218493e-06
4.491839231119716e-06
5.523618339803739e-06
6.411137541030948e-06
7.031475297857831e-06
7.315301599395043e-06
7.2654062353921625e-06
6.9573283069835885e-06
6.522159979285857e-06
6.1161135837608605e-06
5.884723543769995e-06
5.930745491941127e-06
6.293606070931359e-06
6.944989109204331e-06
7.80073445487807e-06
8.744926093925152e-06
9.659082180621178e-06
1.0448552161577414e-05
1.1059718744542489e-05
1.1484811316240488e-05
1.1754961575210366e-05
1.1925344667072694e-05
1.2057912993707212e-05
1.2206986390408661e-05
1.2411104981229002e-05
1.2691877155230775e-05
1.305805725674652e-05
1.3511597472414156e-05
1.405233436882409e-05
1.4679160876621903e-05
1.5387433555110518e-05
1.6164207174980675e-05
1.698398809641687e-05
1.7807678021464207e-05
1.8586282788750893e-05
1.9269209692738408e-05
1.98152088214123e-05
2.0202850168399077e-05
2.0437260417656556e-05
2.0550715492871146e-05
2.0596308464270237e-05
2.0635792890648837e-05
2.0724313643684775e-05
2.08956711874981e-05
2.1151805589358837e-05
2.145932554856829e-05
2.175432527336514e-05
2.1954761344094313e-05
2.197774256113031e-05
2.175769540797958e-05
2.1260920733817412e-05
2.0492780020358213e-05
1.949556550602218e-05
1.833759481940876e-05
1.7096537850153426e-05
1.5841672900551766e-05
1.4620107568653211e-05
1.3450811459439712e-05
1.2327899352866977e-05
1.1231688485314058e-05
1.0143541465389699e-05
9.059221234142607e-06
7.995897630142288e-06
6.990000383073999e-06
6.0862077897986585e-06
5.32100454628183e-06
4.706369429505488e-06
4.2194843546801766e-06
3.8026883884843113e-06
3.374705945523225e-06
2.8504648481604836e-06
2.163801531253289e-06
1.2860523460685792e-06
2.3445266291269373e-07
-9.327880536582559e-07
-2.133756305232907e-06
-3.2874723438982924e-06
-4.338333235326054e-06
-5.272531543569152e-06
-6.120864721895931e-06
-6.946495414860673e-06
-7.821013898784054e-06
-8.796072367280884e-06
-9.879605874020267e-06
-1.1024575163550772e-05
-1.2134500133866272e-05
-1.308488782631769e-05
-1.3754616193505924e-05
-1.4058052504603451e-05
-1.3968268318455881e-05
-1.3524342246212678e-05
-1.2820593938474572e-05
-1.1981111360998288e-05
-1.112735326530262e-05
-1.0348545118883274e-05
-9.683482905442363e-06
-9.11864151864474e-06
-8.602384113043893e-06
-8.070191893545383e-06
-7.472644717193389e-06
-6.797272734400236e-06
-6.07745985405312e-06
-5.385623639125604e-06
-4.812692220467467e-06
-4.4400400166095395e-06
-4.312344343465625e-06
-4.419645751254344e-06
-4.69431769264773e-06
-5.024441186907791e-06
-5.280446354846223e-06
-5.348117163348523e-06
-5.159178036742625e-06
-4.71118580296993e-06
-4.0711986399136884e-06
-3.3619513920992753e-06
-2.7338872509308006e-06
-2.330122230311218e-06
-2.2532373590626592e-06
-2.5422281424797906e-06
-3.165183356942042e-06
-4.0290993355403e-06
-5.0037983761873725e-06
-5.953386593387985e-06
-6.766967038803265e-06
-7.380830258263045e-06
-7.786888450061142e-06
-8.025973000574834e-06
-8.168719955850146e-06
-8.290026438794864e-06
-8.444621897095735e-06
-8.65076672878076e-06
-8.886627207217933e-06
-9.100161458877385e-06
-9.229420617212907e-06
-9.22712674915532e-06
-9.08209076846935e-06
-8.830838453659221e-06
-8.55548951860853e-06
-8.36774135695599e-06
-8.38270559962507e-06
-8.689272633525479e-06
-9.324831842471537e-06
-1.0261211708867597e-05
-1.1405845749224445e-05
-1.2618168866820399e-05
-1.3737205957434668e-05
-1.4613380190829831e-05
-1.513658988636682e-05
-1.5253849276147705e-05
-1.4972856599422396e-05
-1.4351796557349759e-05
-1.3479317975557291e-05
-1.2450902721368224e-05
-1.134816917033283e-05
-1.0226069089636034e-05
-9.110059782244355e-06
-8.002137567196247e-06
-6.892107589677463e-06
-5.769361216001004e-06
-4.630973879077338e-06
-3.483826378215909e-06
-2.3409688710491385e-06
-1.2146830572353285e-06
-1.0987399261878096e-07
9.788450918707114e-07
2.064584597950131e-06
3.160617330126412e-06
4.270466616738314e-06
5.379523166657066e-06
6.451921982045386e-06
7.434885102524702e-06
8.270317984896307e-06
8.91093538373131e-06
9.336429182494753e-06
9.564780882608211e-06
9.654931526625136e-06
9.699322960031168e-06
9.807605134181828e-06
1.0085214689542566e-05
1.0611868056760606e-05
1.1424943070977655e-05
1.251135570112547e-05
1.3809346853868123e-05
1.5219234589601232e-05
1.6620289991961783e-05
1.788989541377485e-05
1.8921185791735665e-05
1.9636300373785577e-05
1.999379769599054e-05
1.9990230015362527e-05
1.9656920988775383e-05
1.9053435562125296e-05
1.8259131793436003e-05
1.7363804023800476e-05
1.6458082812544884e-05
1.562415745111116e-05
1.4927539818619097e-05
1.4410819963091043e-05
1.409042178281174e-05
1.3957057954191983e-05
1.3979886315484168e-05
1.4113476533468542e-05
1.4305940324497317e-05
1.4506285119179439e-05
1.4669378441519829e-05
1.4757777735503845e-05
1.4740803612139777e-05
1.4592233913148594e-05
1.4288523229519642e-05
1.3809298362583198e-05
1.3141043907379955e-05
1.2283596253729852e-05
1.1257704595561904e-05
1.011095318281708e-05
8.919151600720838e-06
7.781064878265587e-06
6.805967292341341e-06
6.095578320380029e-06
5.723897226774548e-06
5.7196768547072875e-06
6.056303373185083e-06
6.652531691736373e-06
7.385113617230324e-06
8.11143756428693e-06
8.697645038150827e-06
9.046031280806509e-06
9.115361867130455e-06
8.929153617837132e-06
8.569679730184647e-06
8.158828937130509e-06
7.830147793344215e-06
7.698600553976813e-06
7.835187522084058e-06
8.25236178989721e-06
8.903451373049739e-06
9.695738881705404e-06
1.0513430916995936e-05
1.1244393993693727e-05
1.1803872974714711e-05
1.2149587633178982e-05
1.2285244314700725e-05
1.2252812312828058e-05
1.211692740587758e-05
1.1946632280329561e-05
1.1799847893746762e-05
1.1714519776343413e-05
1.1707843113674818e-05
1.1782215575004936e-05
1.1934506838868958e-05
1.2164507697817446e-05
1.2479190704036544e-05
1.2891323484174066e-05
1.3413296347619851e-05
1.4048921038015477e-05
1.4786770652343747e-05
1.5598098179154363e-05
1.6440700262788726e-05
1.726788398320669e-05
1.8039730337901536e-05
1.873282579896012e-05
1.934493524263065e-05
1.9892662724640918e-05
2.040251167598027e-05
2.0898139222633302e-05
2.1388164005248543e-05
2.18590148782689e-05
2.2275839585324365e-05
2.2591826968997113e-05
2.2763292776990242e-05
2.2765580407307536e-05
2.2604098286247978e-05
2.2316022228811058e-05
2.196104570265164e-05
2.1603186733140936e-05
2.128887152498709e-05
2.1028211072487894e-05
2.0785920068191582e-05
2.0485720293284918e-05
2.0028027294929072e-05
1.931643311353283e-05
1.8285312887299883e-05
1.69198886740566e-05
1.526175329022619e-05
1.3396848590398317e-05
1.1428102111846044e-05
9.43980263097583e-06
7.46382641851269e-06
5.458020367125982e-06
3.304246612913273e-06
8.285148897129069e-07
-2.160342933368024e-06
-5.822213078976795e-06
-1.0239200751700153e-05
-1.5382746021301154e-05
-2.1102833679802122e-05
-2.7142376185334726e-05
-3.3173697408497105e-05
-3.884879803276987e-05
-4.3852103910528104e-05
-4.7944378837470136e-05
-5.098927690528792e-05
-5.295871724669882e-05
-5.3918532761544815e-05
-5.400027485605653e-05
-5.336758427987231e-05
-5.218568854659724e-05
-5.0600544672710976e-05
-4.8730649629444e-05
-4.667063793478058e-05
-4.4502538143876956e-05
-4.230877473769962e-05
-4.018105131472847e-05
-3.8221009448821105e-05
-3.653145673117006e-05
-3.520014402328496e-05
-3.428063704057369e-05
-3.377605504855856e-05
-3.363101212611628e-05
-3.3735136285891225e-05
-3.393861473922973e-05
-3.407711937820792e-05
-3.400101836220663e-05
-3.360258519065972e-05
-3.283523584859878e-05
-3.172053944750784e-05
-3.0341430711812603e-05
-2.8823089585275692e-05
-2.7305675229696694e-05
-2.5914905448294134e-05
-2.473693319410585e-05
-2.3802946638893562e-05
-2.308661316204465e-05
-2.2514436775971102e-05
-2.1986053548289534e-05
-2.139922321208076e-05
-2.0673371060596275e-05
-1.9766219264744755e-05
-1.8680116126120507e-05
-1.745753378779598e-05
-1.6168040553166394e-05
-1.4891054170340462e-05
-1.369930006680623e-05
-1.2647032324319133e-05
-1.176510480811547e-05
-1.1062620555689129e-05
-1.0532923528688106e-05
-1.0160714403716708e-05
-9.927292986019443e-06
-9.812176449596859e-06
-9.791119123348452e-06
-9.832221742659763e-06
-9.892787196081931e-06
-9.919529080063341e-06
-9.85368626551984e-06
-9.640879669620225e-06
-9.243714627558038e-06
-8.653781480111129e-06
-7.899309207977894e-06
-7.045471733989419e-06
-6.186066328403664e-06
-5.427501407564442e-06
-4.868119720315687e-06
-4.577266922641178e-06
-4.578834291466269e-06
-4.843187573820501e-06
-5.2896464875028825e-06
-5.799406407084824e-06
-6.236501926623778e-06
-6.4726042406646394e-06
-6.410520092801706e-06
-6.0014389849442145e-06
-5.252256516140509e-06
-4.221452849764219e-06
-3.0045784339099184e-06
-1.7127960424004405e-06
-4.4953881555409293e-07
7.092705652264695e-07
1.7269527738180511e-06
2.6073284736986877e-06
3.385700868363245e-06
4.1123107306828265e-06
4.8328488444136065e-06
5.571299577390123e-06
6.319754406494543e-06
7.038016568628689e-06
7.663257189975017e-06
8.127321500727023e-06
8.377202905325669e-06
8.393244415465305e-06
8.200053498490227e-06
7.866844392987362e-06
7.496537003467209e-06
7.2057899126149895e-06
7.100491236185709e-06
7.252452389048173e-06
7.682818503700512e-06
8.356096662326903e-06
9.186158551249195e-06
1.0052779802986718e-05
1.08249408473646e-05
1.1385773856882273e-05
1.1653950960363844e-05
1.159739905451874e-05
1.1237137947930425e-05
1.0641235204190268e-05
9.910801991494445e-06
9.161216632041753e-06
8.502196784486981e-06
8.020027299194781e-06
7.764430093147758e-06
7.741531240723445e-06
7.913391143762543e-06
8.203758207977027e-06
8.50910688256223e-06
8.713577020807755e-06
8.70608959743904e-06
8.397656557512067e-06
7.736746405024849e-06
6.720547351461221e-06
5.4001432495374075e-06
3.878071895619128e-06
2.297567458504123e-06
8.240351383337025e-07
-3.791432450625637e-07
-1.1768183919928147e-06
-1.4855273343335659e-06
-1.289206004768106e-06
-6.431581684851867e-07
3.3555224431286835e-07
1.4901548300581352e-06
2.6544950765987e-06
3.6851660055024e-06
4.488197907524563e-06
5.03410325306191e-06
5.357788286396125e-06
5.543550043920636e-06
5.699095611983848e-06
5.925243969291223e-06
6.288956616150717e-06
6.806319977615291e-06
7.439352546170699e-06
8.106797204421536e-06
8.705416246910763e-06
9.135734836555262e-06
9.325358284088866e-06
9.244085229297681e-06
8.907662304256373e-06
8.370351189029595e-06
7.709498022286662e-06
7.007130867645646e-06
6.333797154743173e-06
5.738477301546624e-06
5.2460588517107745e-06
4.861378692405252e-06
4.577046483035963e-06
4.381647824747574e-06
4.265540029142884e-06
4.222918098954537e-06
4.2505069356901875e-06
4.344489727383566e-06
4.4977115101696605e-06
4.698758823946604e-06
4.9334932548847545e-06
5.188465777163797e-06
5.454804669463135e-06
5.730928399926146e-06
6.022818870755234e-06
6.3414121731698275e-06
6.6976155339869725e-06
7.096236876783913e-06
7.5305143449532345e-06
7.978892210892373e-06
8.405258373568785e-06
8.763149920668867e-06
9.003572253371298e-06
9.08519133086118e-06
8.984899432202718e-06
8.706311423785202e-06
8.2838107748637e-06
7.780442102521601e-06
7.279188313725459e-06
6.868732556673058e-06
6.626299178888965e-06
6.601168543552449e-06
6.802639771886475e-06
7.195447856443439e-06
7.704051669446619e-06
8.225156283803119e-06
8.645836430557516e-06
8.86324001133413e-06
8.80149368371576e-06
8.422248260293726e-06
7.727071902688065e-06
6.75208798251549e-06
5.557178956970094e-06
4.2131524247898954e-06
2.790220115440774e-06
1.3501075662838955e-06
-5.745103828053936e-08
-1.3945888675271625e-06
-2.633277095761819e-06
-3.7532940050234165e-06
-4.741537734151701e-06
-5.593027607328795e-06
-6.312917592416039e-06
-6.918183675365435e-06
-7.4375502109411275e-06
-7.90867317840983e-06
-8.372415540583e-06
-8.864973154844287e-06
-9.409389236834925e-06
-1.0008433952992216e-05
-1.0640797721066929e-05
-1.1262015708250708e-05
-1.1810580396094965e-05
-1.2218501696738902e-05
-1.2424426954817087e-05
-1.2386649276060663e-05
-1.2093154925697357e-05
-1.156637394007853e-05
-1.0861390167938671e-05
-1.0057759881463276e-05
-9.246430257365708e-06
-8.514225831800536e-06
-7.928790014475968e-06
-7.526692571204379e-06
-7.3067412228731145e-06
-7.229549356970777e-06
-7.223322929494941e-06
-7.194830894601248e-06
-7.043763138751901e-06
-6.678250844816996e-06
-6.029263282358649e-06
-5.061881704289698e-06
-3.782004366718944e-06
-2.2377253940387613e-06
-5.15310691599581e-07
1.269736444809088e-06
2.985598223378798e-06
4.499808687834393e-06
5.696144395568239e-06
6.4909619876987866e-06
6.846981431594222e-06
6.782403465524894e-06
6.373376398978412e-06
5.748320596258178e-06
5.073559984105085e-06
4.5310759369077056e-06
4.290826858046634e-06
4.481662855351125e-06
5.166004840756281e-06
6.323727137875456e-06
7.849756710053303e-06
9.567693793680474e-06
1.1258537189434176e-05
1.2700012163433865e-05
1.370896321259733e-05
1.4177721312766564e-05
1.4095940282951926e-05
1.3552237806325237e-05
1.2714532772104002e-05
1.1793124831748044e-05
1.0994918333152564e-05
1.047950443198821e-05
1.0327386857603993e-05
1.0527548397807982e-05
1.0986635489606433e-05
1.155661421889936e-05
1.2073264003831931e-05
1.2395483993480848e-05
1.2435666657986456e-05
1.2174200497142942e-05
1.165568988470423e-05
1.0969461593388208e-05
1.0220980581111207e-05
9.502805709100232e-06
8.873169159476717e-06
8.347424768538078e-06
7.903433333933991e-06
7.497762369840601e-06
7.086632171106519e-06
6.64463230497348e-06
6.175473902334566e-06
5.711890346393088e-06
5.305286167142027e-06
5.008798894267388e-06
4.859231218677237e-06
4.863406598037287e-06
4.992984373613523e-06
5.189176570924614e-06
5.375946476860009e-06
5.477968276275995e-06
5.438494843022242e-06
5.2325470556494934e-06
4.872325763634321e-06
4.403960068301858e-06
3.896990772337324e-06
3.4297286799302403e-06
3.074404906808392e-06
2.8857144424663783e-06
2.895106344546327e-06
3.1113789798409267e-06
3.526300847889009e-06
4.1226055735425965e-06
4.8811989208153525e-06
5.784933759744912e-06
6.817716594598405e-06
7.959564768430823e-06
9.179909611139026e-06
1.0432332595720768e-05
1.1653670095797888e-05
1.2769062335247154e-05
1.3702488066074606e-05
1.439031103906962e-05
1.479408038620554e-05
1.4908756638704011e-05
1.4763751744497536e-05
1.441630287550068e-05
1.3939049183283983e-05
1.3405460608418792e-05
1.2877363964833463e-05
1.2397994206717336e-05
1.1992020303493886e-05
1.167152834484116e-05
1.1444861454857925e-05
1.1324273010720764e-05
1.1328899685054657e-05
1.1481415601769403e-05
1.1799226348714074e-05
1.2283308169461376e-05
1.2908986686200643e-05
1.3622640183038926e-05
1.4346577805302186e-05
1.4991741673520552e-05
1.5475267399018492e-05
1.573817403208049e-05
1.5758136968187986e-05
1.5553561332246112e-05
1.517764725979555e-05
1.4704054914421675e-05
1.4208217342963995e-05
1.3749544192450856e-05
1.33593421974667e-05
1.3037404203826862e-05
1.2757510296336737e-05
1.247942240227253e-05
1.2163178163408369e-05
1.1781125947880886e-05
1.1324238610991092e-05
1.0801369764951794e-05
1.0232522453269186e-05
9.639077341113398e-06
9.034688222326656e-06
8.420021989719969e-06
7.782968093896085e-06
7.1039563499964725e-06
6.364284941738074e-06
5.554423142724318e-06
4.6793714787986535e-06
3.759239906206716e-06
2.8248449522374776e-06
1.909767639452899e-06
1.0414139137789157e-06
2.338386401690398e-07
-5.155924499534324e-07
-1.2249381229763934e-06
-1.9225111854759584e-06
-2.6396311950925543e-06
-3.403598405051485e-06
-4.232895463274915e-06
-5.13571663489739e-06
-6.111730532880801e-06
-7.155905118624046e-06
-8.262611908931055e-06
-9.428259233790869e-06
-1.0651338856501017e-05
-1.1929772667659271e-05
-1.325648690433172e-05
-1.4614901225297927e-05
-1.5976270527318596e-05
-1.73004671263859e-05
-1.8540903258691342e-05
-1.9653078162512754e-05
-2.0605007143334288e-05
-2.1386908785820202e-05
-2.2017297478807286e-05
-2.2543210392467622e-05
-2.3033624949488492e-05
-2.356688611304715e-05
-2.421467936595965e-05
-2.5026240564179295e-05
-2.6016709205571158e-05
-2.716268988814673e-05
-2.8406373209165556e-05
-2.9667422084252016e-05
-3.0859830525691714e-05
-3.190966612383064e-05
-3.276938577415478e-05
-3.34253375529173e-05
-3.389688120496818e-05
-3.422777860477889e-05
-3.447250925712e-05
-3.468138551784591e-05
-3.4888427411203335e-05
-3.510490528051821e-05
-3.5319631663849555e-05
-3.550508518144566e-05
-3.562691290597369e-05
-3.5653734806191804e-05
-3.5564588676290806e-05
-3.535257099061987e-05
-3.502474533332586e-05
-3.4599626203009326e-05
-3.4104063997013e-05
-3.357101565333467e-05
-3.303868071643125e-05
-3.2550268841700006e-05
-3.2152788294696866e-05
-3.189314094543623e-05
-3.1810625586411e-05
-3.1926465464160114e-05
-3.223264732762938e-05
-3.268351715702528e-05
-3.319367906424758e-05
-3.3644596718075104e-05
-3.3900151786937224e-05
-3.3828890398828767e-05
-3.332856762595289e-05
-3.2347560823543374e-05
-3.0898111333609074e-05
-2.9058071259355298e-05
-2.6960387499155518e-05
-2.4772257550274082e-05
-2.2668074583586693e-05
-2.08014705697934e-05
-1.928176521683556e-05
-1.8159013914067283e-05
-1.7419937611975897e-05
-1.699478351772445e-05
-1.6773110900756284e-05
-1.662502930547763e-05
-1.642376407286419e-05
-1.606560722503415e-05
-1.548417390471017e-05
-1.4657157112240365e-05
-1.3605160549251823e-05
-1.2383448250400448e-05
-1.1068439818261675e-05
-9.741459413189235e-06
-8.47261665974625e-06
-7.307733837286903e-06
-6.260858711833539e-06
-5.3140339418336935e-06
-4.424643666097544e-06
-3.5390110617338292e-06
-2.609336527236504e-06
-1.6099861340075019e-06
-5.489447025665987e-07
5.288811684047839e-07
1.5479928125889429e-06
2.4173513067439076e-06
3.0508965870604386e-06
3.388644554096923e-06
3.413060378203118e-06
3.1564062199520326e-06
2.6969562741555197e-06
2.14477613182918e-06
1.6203886348640107e-06
1.2313473723999476e-06
1.0520509126533481e-06
1.1110348208304842e-06
1.3878883517961352e-06
1.8195468716959777e-06
2.313725262523203e-06
2.766180661491174e-06
3.078448027701039e-06
3.1734151552081914e-06
3.0070959276449255e-06
2.575743462906293e-06
1.917794610953362e-06
1.1101775360908898e-06
2.586211383752345e-07
-5.17823512795032e-07
-1.1066397591395398e-06
-1.4230663081364004e-06
-1.4282470819978041e-06
-1.139368242965511e-06
-6.278139154383335e-07
-3.927036404190045e-09
6.094032918829529e-07
1.1084209407096192e-06
1.4370699649991449e-06
1.6038787288197906e-06
1.6811000728974104e-06
1.7847838009656001e-06
2.0401096350406483e-06
2.54112783576207e-06
3.3164460630949948e-06
4.311467750648387e-06
5.39363747327322e-06
6.380878845199563e-06
7.086785994227746e-06
7.371065072632215e-06
7.181710802630684e-06
6.577071541999231e-06
5.720888929387973e-06
4.850279234774735e-06
4.223634122533384e-06
4.060743068661103e-06
4.489730714392534e-06
5.514090468386756e-06
7.008490869161341e-06
8.745223091641286e-06
1.0445758198084151e-05
1.1845668194252537e-05
1.275767878615038e-05
1.3117799919262476e-05
1.300338564604123e-05
1.261872083641316e-05
1.2251650347325485e-05
1.2211815237323038e-05
1.2765384162685989e-05
1.4081632959608239e-05
1.620325655392049e-05
1.9045896636144995e-05
2.242481899498557e-05
2.6100031003870682e-05
2.9827146764627474e-05
3.34009557736804e-05
3.668185513232299e-05
3.960097731924727e-05
4.2146216785636384e-05
4.4336522447593295e-05
4.6194327372477365e-05
4.7725279839671985e-05
4.891100624968947e-05
4.971577516900383e-05
5.010327612915146e-05
5.005669997934314e-05
4.959470587565432e-05
4.8777669564295756e-05
4.770207293167251e-05
4.6484794725544614e-05
4.52421147929718e-05
4.406952444358833e-05
4.30276696785834e-05
4.213737659825542e-05
4.1383665580940514e-05
4.072604414896897e-05
4.0111020896093743e-05
3.9483020684010366e-05
3.879142321951349e-05
3.799356411940222e-05
3.705535034501901e-05
3.595194591650165e-05
3.4670493876293985e-05
3.321528734374403e-05
3.16138541285986e-05
2.9920940036140683e-05
2.8217093025813426e-05
2.659975020688987e-05
2.516711252365192e-05
2.3997855453228343e-05
2.313184644166522e-05
2.255765391827842e-05
2.2211353146797088e-05
2.1988223005397193e-05
2.1765234633258026e-05
2.1428920482936772e-05
2.090136267148829e-05
2.0157286014486045e-05
1.922755962759493e-05
1.818813520256053e-05
1.713749094465279e-05
1.616883357113176e-05
1.534472388240441e-05
1.4681041886802007e-05
1.4144530049064294e-05
1.3664333069634529e-05
1.3154082435770927e-05
1.2538223909512189e-05
1.1775201563501151e-05
1.0871033459060676e-05
9.879448818781675e-06
8.888380805405282e-06
7.996262022128276e-06
7.284296949702703e-06
6.791980110449285e-06
6.502316607180926e-06
6.340716665903143e-06
6.188056057717759e-06
5.90484887704451e-06
5.360783901130929e-06
4.462683482534606e-06
3.174482115754705e-06
1.5248566070280125e-06
-3.9892852274612297e-07
-2.4693385685533365e-06
-4.544956911135951e-06
-6.499446296452717e-06
-8.247399606861408e-06
-9.762287551484718e-06
-1.1083347698113266e-05
-1.2310265048030743e-05
-1.3586545314032558e-05
-1.5074325881424942e-05
-1.6924786280652725e-05
-1.924909837875249e-05
-2.2094829470638394e-05
-2.5431831648895008e-05
-2.9150044228146485e-05
-3.306959495157208e-05
-3.696150514717468e-05
-4.057558831945833e-05
-4.367110037277448e-05
-4.604551487764835e-05
-4.755743062476665e-05
-4.814087032625025e-05
-4.780978752096439e-05
-4.6653129614739984e-05
-4.482203338443044e-05
-4.2511488355328575e-05
-3.993904938310969e-05
-3.732298754388105e-05
-3.486181587219205e-05
-3.271664837079034e-05
-3.099754850950134e-05
-2.9754958651831288e-05
-2.897733907700686e-05
-2.859599963986771e-05
-2.8497494159077812e-05
-2.8542765896612647e-05
-2.8590675241016753e-05
-2.8522064401008403e-05
-2.8259675272798604e-05
-2.7779480488345827e-05
-2.7110472734881215e-05
-2.6322466999639463e-05
-2.55044248002797e-05
-2.4738392353536036e-05
-2.40755365319339e-05
-2.3520426433987096e-05
-2.3027620451610548e-05
-2.2511330029223194e-05
-2.186541168868521e-05
-2.0988251644765294e-05
-1.9806045500813945e-05
-1.828880263249624e-05
-1.6455787015033578e-05
-1.4370238485997062e-05
-1.212608969768131e-05
-9.831113801996877e-06
-7.5910377582778046e-06
-5.497763916204608e-06
-3.6226396075395295e-06
-2.0136608359869173e-06
-6.944251761475637e-07
3.37082329531361e-07
1.1104268410447554e-06
1.684206361259306e-06
2.1446509207845056e-06
2.598798920363316e-06
3.1609337079050217e-06
3.9331780232878475e-06
4.983587945827025e-06
6.326847955255508e-06
7.913015146382336e-06
9.628419475197789e-06
1.1310083432471103e-05
1.2771631275047283e-05
1.3835593695519642e-05
1.4365178406906004e-05
1.4288516189765219e-05
1.3610136874164699e-05
1.2407500219917381e-05
1.0813965039444403e-05
8.992679776768053e-06
7.107731324453134e-06
5.299077714654033e-06
3.666359907846543e-06
2.2641023413689866e-06
1.1077954774375376e-06
1.8768330351790222e-07
-5.146049095454054e-07
-1.0117653526211114e-06
-1.3029966962875138e-06
-1.374629221946298e-06
-1.2085711671576551e-06
-7.955579225667312e-07
-1.4871042044748248e-07
6.872630464318146e-07
1.634710539070427e-06
2.590822660706027e-06
3.443269684613243e-06
4.090147316786055e-06
4.4594151409888494e-06
4.523070420326667e-06
4.302655876233072e-06
3.864941488876671e-06
3.3090875179139275e-06
2.74858656084255e-06
2.2922660033347776e-06
2.0284022459727304e-06
2.0147200665791136e-06
2.27519633543058e-06
2.802773106452025e-06
3.5658580973108763e-06
4.516145023599054e-06
5.595784217831681e-06
6.742953990252882e-06
7.895961828200774e-06
8.996711445677908e-06
9.994460742629419e-06
1.08502836753654e-05
1.1541796103347943e-05
1.206690911508757e-05
1.2445015749341923e-05
1.2714321831505563e-05
1.292497418572768e-05
1.3128946471462514e-05
1.3368880490515872e-05
1.3668796610349722e-05
1.4029458847893272e-05
1.4430134115245794e-05
1.4836749080548443e-05
1.5214511316704917e-05
1.554153340329121e-05
1.5819407569563716e-05
1.607728138837387e-05
1.6367662204815713e-05
1.6754457491542038e-05
1.7295970757852277e-05
1.8027077228273197e-05
1.8945191445177042e-05
2.0003837036637466e-05
2.1115882686361696e-05
2.2166276808830243e-05
2.303193016740935e-05
2.3604744574639855e-05
2.381301261919765e-05
2.3636671488866015e-05
2.311312212044954e-05
2.233226283367907e-05
2.142162850053223e-05
2.0524596963599706e-05
1.977606588282763e-05
1.928047172096539e-05
1.909638556665633e-05
1.923031701167007e-05
1.9640184068849547e-05
2.0246722900830558e-05
2.094948611441799e-05
2.1643430536768332e-05
2.2232560114270286e-05
2.2638467077579246e-05
2.2803423342024432e-05
2.2689305979142714e-05
2.2274571515408777e-05
2.1551473663416758e-05
2.0524857826254765e-05
1.9212575438087332e-05
1.7646383165392762e-05
1.5871590878923685e-05
1.3943930894094785e-05
1.1923075132004231e-05
9.863589182277534e-06
7.80537362681935e-06
5.7662915268203185e-06
3.739399495719434e-06
1.6960108167128445e-06
-4.059014016643492e-07
-2.610109296239593e-06
-4.9504921662342334e-06
-7.442483553483194e-06
-1.0079691873701275e-05
-1.2836091780008561e-05
-1.567243719158278e-05
-1.8544345273868575e-05
-2.140923002580555e-05
-2.422997327156524e-05
-2.6974626348347465e-05
-2.9613036288206285e-05
-3.211253189231203e-05
-3.443524662796185e-05
-3.653910763754297e-05
-3.8383132043136314e-05
-3.993591341881887e-05
-4.1184695343107235e-05
-4.2141790122419025e-05
-4.2845592502054304e-05
-4.335494534230264e-05
-4.373766650453168e-05
-4.4055980479934504e-05
-4.435277600896508e-05
-4.464262010464767e-05
-4.4910243925910275e-05
-4.511710184720737e-05
-4.521420973817839e-05
-4.5157523966572226e-05
-4.4921253028802384e-05
-4.4505015072646834e-05
-4.3932560741512155e-05
-4.3242355874912706e-05
-4.247288244758622e-05
-4.1647265891941836e-05
-4.07622083081382e-05
-3.978506163691253e-05
-3.866054488239849e-05
-3.732578556980611e-05
-3.572987264407454e-05
-3.385265193527045e-05
-3.171746709433385e-05
-2.9393939824966035e-05
-2.698932072864962e-05
-2.462981484593526e-05
-2.243590418385493e-05
-2.0497429598199733e-05
-1.885460936443289e-05
-1.7490077945487006e-05
-1.6334573363277914e-05
-1.52855850628183e-05
-1.423488147676162e-05
-1.3098267314806582e-05
-1.1839943654327513e-05
-1.0484850079408261e-05
-9.115213611770594e-06
-7.851535963673252e-06
-6.822373831617246e-06
-6.1303821782099e-06
-5.823316116978151e-06
-5.877641563624878e-06
-6.199319406342925e-06
-6.6419866968940315e-06
-7.038291555896553e-06
-7.236725324573001e-06
-7.134848624291364e-06
-6.700721764070835e-06
-5.977386740513031e-06
-5.069599464983194e-06
-4.116517528445086e-06
-3.2575187551135313e-06
-2.599862799472972e-06
-2.1961561959328178e-06
-2.0368117031172407e-06
-2.058705478293935e-06
-2.1671094238606837e-06
-2.2647559749873326e-06
-2.280323251859867e-06
-2.189005491436726e-06
-2.0199818486100657e-06
-1.8489476675281687e-06
-1.777610331244928e-06
-1.9052958303245548e-06
-2.299801128146416e-06
-2.9748808243650687e-06
-3.880191904201066e-06
-4.906498219327831e-06
-5.905200233399143e-06
-6.717753299000736e-06
-7.208163672616797e-06
-7.291092615673938e-06
-6.949275889664207e-06
-6.23662040835648e-06
-5.266757097373317e-06
-4.190140770920254e-06
-3.1651941741529157e-06
-2.329956898393715e-06
-1.7800720045308243e-06
-1.5569895955380998e-06
-1.6475813269906503e-06
-1.9936901617912315e-06
-2.508171784385694e-06
-3.0931506279153826e-06
-3.6565798633810147e-06
-4.124465490466575e-06
-4.447760474502307e-06
-4.6043885244989725e-06
-4.597704196988848e-06
-4.452801917277178e-06
-4.211623804813914e-06
-3.927172825948593e-06
-3.656729605760394e-06
-3.454044997435347e-06
-3.3610096859225654e-06
-3.400017377958102e-06
-3.5687572475032524e-06
-3.839160013427003e-06
-4.1615293374674215e-06
-4.473621969211263e-06
-4.712949635783324e-06
-4.829366191349852e-06
-4.794559245683295e-06
-4.605662539325523e-06
-4.281777107591114e-06
-3.854312985429248e-06
-3.3540830732550485e-06
-2.7993196342635013e-06
-2.1887659115880147e-06
-1.5026146824195135e-06
-7.116544818859662e-07
2.0775313757764607e-07
1.25743457063862e-06
2.4053713597545355e-06
3.5825825118321014e-06
4.691362222279834e-06
5.6241432740352325e-06
6.289062288095504e-06
6.6359872020919535e-06
6.6760222799363155e-06
6.488625497439693e-06
6.21325124803628e-06
6.026193505687906e-06
6.107082579307138e-06
6.602287582818884e-06
7.593548720259109e-06
9.079206116088919e-06
1.0972622004180745e-05
1.3118479470068585e-05
1.5323523023485018e-05
1.7394959623569877e-05
1.9177953958502947e-05
2.0583865602196704e-05
2.160306879197845e-05
2.229987110177246e-05
2.279131538078659e-05
2.3215431958797555e-05
2.3696832747519448e-05
2.431782897891885e-05
2.5101499663400264e-05
2.6009877065901545e-05
2.6956556238510927e-05
2.7829594016970365e-05
2.8518398144824588e-05
2.8937904254175316e-05
2.9044686161648064e-05
2.8842252129125862e-05
2.8375833281027894e-05
2.7719585414781884e-05
2.6960606642333307e-05
2.6184211075565208e-05
2.5463645052195208e-05
2.4855428842770348e-05
2.4399484955407965e-05
2.4121840011569284e-05
2.4037344877063977e-05
2.415054569512532e-05
2.4454201950993722e-05
2.4926424417455944e-05
2.5528427366537965e-05
2.6205070654843552e-05
2.688962792411099e-05
2.7512803594721077e-05
2.8014423406468415e-05
2.835500954117233e-05
2.8524074217746457e-05
2.8542601109872092e-05
2.8458662188220074e-05
2.8336973555682707e-05
2.824482989679766e-05
2.823776399201018e-05
2.834822046175442e-05
2.8579613430649652e-05
2.8906709843651507e-05
2.9281780147536046e-05
2.964475317593645e-05
2.993492691996334e-05
3.0101699884470415e-05
3.0112254800680157e-05
2.9955003959105315e-05
2.963867421426254e-05
2.9187912617746453e-05
2.8636990368475737e-05
2.8023410577128264e-05
2.7382944289599025e-05
2.6746927129875752e-05
2.614176340162276e-05
2.558979154997597e-05
2.5110234459345447e-05
2.4719045499089378e-05
2.4427038580731693e-05
2.423654752823144e-05
2.413767996726589e-05
2.410570784453919e-05
2.410108423248288e-05
2.4072984657096157e-05
2.3966301374086305e-05
2.373094821453413e-05
2.3331480843773196e-05
2.275468054042294e-05
2.201304448015617e-05
2.1143042394718497e-05
2.0198308646471783e-05
1.9239266764144455e-05
1.8321633550180623e-05
1.7486539101219776e-05
1.67545504793637e-05
1.6124841230640177e-05
1.5579407339775413e-05
1.5090959889810816e-05
1.4632260779550035e-05
1.4184428186458466e-05
1.3742167207566411e-05
1.3314835339580307e-05
1.2923440221804825e-05
1.2594731996594718e-05
1.235418372356941e-05
1.2219686689241347e-05
1.2197265958766278e-05
1.2279284758903978e-05
1.2444802907538883e-05
1.2661299604812847e-05
1.2887008486344787e-05
1.3073552246951209e-05
1.3169124185839542e-05
1.3122803421280097e-05
1.2890464922767762e-05
1.2442123531701355e-05
1.1769640181935578e-05
1.0892890903816852e-05
9.862153018491409e-06
8.754870628128884e-06
7.666149685829714e-06
6.694030062171997e-06
5.922270966306974e-06
5.4044718365278265e-06
5.1533895654291906e-06
5.138198147160935e-06
5.2904559828958375e-06
5.517289508414198e-06
5.718465826736056e-06
5.803179618671687e-06
5.702765245637954e-06
5.376998469085465e-06
4.813657048841842e-06
4.022881969493977e-06
3.029016064847914e-06
1.8626870103891414e-06
5.550445166581453e-07
-8.652944499126514e-07
-2.3732905073724177e-06
-3.947859895718383e-06
-5.572765712142896e-06
-7.2383947064157645e-06
-8.943775324470723e-06
-1.0697474688756822e-05
-1.251595858053078e-05
-1.4418691252481037e-05
-1.642046503436258e-05
-1.852273658705562e-05
-2.0706601067582233e-05
-2.2930072782358583e-05
-2.51314408466547e-05
-2.723882921833342e-05
-2.918417579220492e-05
-3.0918244078403936e-05
-3.2422528702214654e-05
-3.371432726931548e-05
-3.4842810475625275e-05
-3.5876264703746044e-05
-3.688317627318173e-05
-3.791175062592059e-05
-3.897321518775835e-05
-4.0033566014581085e-05
-4.101643353999437e-05
-4.181699364417231e-05
-4.2324086699254414e-05
-4.244566749706629e-05
-4.213190525663162e-05
-4.1390839051753554e-05
-4.029325186076151e-05
-3.8965861543907596e-05
-3.7574423015841014e-05
-3.630031196662224e-05
-3.531520119314356e-05
-3.475838521508178e-05
-3.472028484426827e-05
-3.5234041575203046e-05
-3.62753803631324e-05
-3.776951660175337e-05
-3.960305801439013e-05
-4.1638616952574217e-05
-4.373003446537847e-05
-4.573649274015591e-05
-4.7534175987970205e-05
-4.9024459114932395e-05
-5.01378874864797e-05
-5.083354219511563e-05
-5.1093843835083196e-05
-5.091546729511554e-05
-5.02977773561037e-05
-4.9230917926864186e-05
-4.7686188991766224e-05
-4.561139082039874e-05
-4.293322750289596e-05
-3.9567612077421864e-05
-3.543697845666334e-05
-3.0491849175742358e-05
-2.4732412127032804e-05
-1.8225187530231638e-05
-1.1110327766487292e-05
-3.596726461714085e-06
4.05536954854408e-06
1.1561732619583678e-05
1.8646609871059687e-05
2.507406884215165e-05
3.0672227315612826e-05
3.534599852544313e-05
3.907663722856782e-05
4.1909340087157696e-05
4.393266722604216e-05
4.5254992136709936e-05
4.5983251410124656e-05
4.6208040600838835e-05
4.5997020789308575e-05
4.539629223158956e-05
4.443748319008138e-05
4.314723932456939e-05
4.1555748759335165e-05
3.970178121107809e-05
3.763311917708889e-05
3.540277449279349e-05
3.3062600663405946e-05
3.0656551057612016e-05
2.8215802040048538e-05
2.5757335784665715e-05
2.3286552446769507e-05
2.0803308316063154e-05
1.8309731898693043e-05
1.5817521196127307e-05
1.3352380543888434e-05
1.0953891476927992e-05
8.670315875396554e-06
6.549292521494365e-06
4.626682498085712e-06
2.916536483494714e-06
1.4050539705646804e-06
5.048940931531966e-08
-1.2105086564986861e-06
-2.451246116445919e-06
-3.7404518976147082e-06
-5.12799913914112e-06
-6.633972165106192e-06
-8.243454133769705e-06
-9.90821193477528e-06
-1.1555052950177997e-05
-1.309931619296132e-05
-1.4460989834433108e-05
-1.5580478763966436e-05
-1.643112773692312e-05
-1.702618728042909e-05
-1.741887371176966e-05
-1.769536506220359e-05
-1.796180898126364e-05
-1.832749659184933e-05
-1.8887080665098716e-05
-1.9704934764590913e-05
-2.0804401953870666e-05
-2.2163826269867035e-05
-2.3720063136744442e-05
-2.5378853028067128e-05
-2.7030248999169655e-05
-2.856641082100525e-05
-2.9898657997251887e-05
-3.097078965900303e-05
-3.176633999709322e-05
-3.230856723829954e-05
-3.265339451220176e-05
-3.28769572735929e-05
-3.306053628314956e-05
-3.3276169114485285e-05
-3.357596315356205e-05
-3.3987104711343646e-05
-3.451301960884407e-05
-3.513950980837518e-05
-3.5843442129285096e-05
-3.6601077199039896e-05
-3.7393551221215915e-05
-3.8208218385140535e-05
-3.90361237759575e-05
-3.9867269711212514e-05
-4.0686083773787606e-05
-4.146934391522484e-05
-4.218782852526915e-05
-4.28114886254032e-05
-4.331650247008414e-05
-4.369168111362309e-05
-4.394168344014662e-05
-4.4085411585789304e-05
-4.414950464197823e-05
-4.4158497917250745e-05
-4.4124382229032455e-05
-4.403856987296338e-05
-4.386856216164792e-05
-4.356016759201524e-05
-4.304442092716295e-05
-4.224695005413351e-05
-4.109688137631621e-05
-3.953268888251485e-05
-3.750359803826786e-05
-3.496688825931238e-05
-3.188314999000507e-05
-2.8212669839075232e-05
-2.3916202006271363e-05
-1.896228113101047e-05
-1.3341157053687123e-05
-7.0829545769705195e-06
-2.755527689461283e-07
6.923328320158544e-06
1.4284805417513771e-05
2.1521169535023315e-05
2.8311653882463983e-05
3.433805815333615e-05
3.9324004549489554e-05
4.307037014194757e-05
4.547996609601066e-05
4.6566690386530484e-05
4.644762904006224e-05
4.532012382747025e-05
4.3428813407534746e-05
4.102940508071338e-05
3.8356086393052905e-05
3.559808283745786e-05
3.28883317471255e-05
3.0304256176178608e-05
2.7877946731055734e-05
2.561133548117657e-05
2.3491538477770524e-05
2.150245079787094e-05
1.9630535549772267e-05
1.786493313930508e-05
1.6193842192362425e-05
1.460005733830827e-05
1.305838024967166e-05
1.1536509470866418e-05
9.999421692932633e-06
8.4157753803297e-06
6.764019054241497e-06
5.0359466440099346e-06
3.236353997664283e-06
1.3788578915583555e-06
-5.206755924347205e-07
-2.4507755544953427e-06
-4.408709859150928e-06
-6.400923150187161e-06
-8.4392857067187e-06
-1.0534295565071034e-05
-1.2687449541706834e-05
-1.488539342658718e-05
-1.709805970323905e-05
-1.9281904881374472e-05
-2.138786005166551e-05
-2.3372122464518536e-05
-2.52068774354856e-05
-2.6887783556369533e-05
-2.843571136265784e-05
-2.9891668371223895e-05
-3.130570265854429e-05
-3.272233914627382e-05
-3.416625633700194e-05
-3.56320987114585e-05
-3.7081447967752865e-05
-3.844825290247613e-05
-3.965189735539612e-05
-4.061513326518069e-05
-4.1282830991122555e-05
-4.1637219233755215e-05
-4.1706057295037296e-05
-4.1561794524653796e-05
-4.1311810950622e-05
-4.108178534505599e-05
-4.099562764212445e-05
-4.1155936723606446e-05
-4.162853987770032e-05
-4.2433509045582025e-05
-4.354346605625395e-05
-4.4888383353895755e-05
-4.636482777247702e-05
-4.784694857900665e-05
-4.919658976803295e-05
-5.0270649526415574e-05
-5.0925000241687995e-05
-5.101560481944211e-05
-5.039858444275592e-05
-4.8931628194667085e-05
-4.6479106587834845e-05
-4.2922505406040186e-05
-3.817641990762953e-05
-3.22085766172852e-05
-2.5060553553401133e-05
-1.686451796531822e-05
-7.85086324000904e-06
1.6575645175693255e-06
1.1266854401998604e-05
2.054814962693962e-05
2.9084194366387285e-05
3.6519096252149955e-05
4.260250394718763e-05
4.7219674602096e-05
5.040115085899904e-05
5.230960153490386e-05
5.320601450853153e-05
5.340183102998459e-05
5.320671975594369e-05
5.288267115081735e-05
5.2613573946265784e-05
5.249566380467445e-05
5.2549090222382985e-05
5.274565062242034e-05
5.30438886741959e-05
5.342130287947947e-05
5.389474130120893e-05
5.4523751791000695e-05
5.539663602754576e-05
5.660381890762831e-05
5.820658160100729e-05
6.02103514897078e-05
6.255038016411464e-05
6.509422852570086e-05
6.76609951221603e-05
7.005289283790607e-05
7.209172698791396e-05
7.365178178386839e-05
7.468173485929649e-05
7.52110733420248e-05
7.534025247401147e-05
7.521753328407847e-05
7.50081810245882e-05
7.486294151151913e-05
7.489230203247907e-05
7.515125392660633e-05
7.563665441509532e-05
7.629649573245417e-05
7.704803018735232e-05
7.780018738779215e-05
7.847524291226722e-05
7.902524127462606e-05
7.944007351235783e-05
7.974607976954495e-05
7.999621122640828e-05
8.025469345208453e-05
8.058033013202463e-05
8.101273143743375e-05
8.15647525955336e-05
8.22225224603502e-05
8.29521666010838e-05
8.371037803497006e-05
8.445499247655365e-05
8.51520299690241e-05
8.577718518009438e-05
8.631196712070269e-05
8.67368229064322e-05
8.702485572104627e-05
8.713967586561537e-05
8.703948051082682e-05
8.668710189438776e-05
8.60632960545419e-05
8.51788431281922e-05
8.408075192544936e-05
8.284920525044853e-05
8.158450290768966e-05
8.038635993703669e-05
7.933050229240869e-05
7.844870840288321e-05
7.771784430273096e-05
7.706119135625248e-05
7.636215908331019e-05
7.548728660217467e-05
7.43131866709212e-05
7.275134228304935e-05
7.076548654168391e-05
6.837828584758965e-05
6.566655964768759e-05
6.274665960143784e-05
5.975341994812155e-05
5.681703247632652e-05
5.404225209337133e-05
5.1493606871263965e-05
4.918896501141214e-05
4.710214762172813e-05
4.517354391533192e-05
4.33261679356293e-05
4.148356999127764e-05
3.958571400453012e-05
3.759947368616713e-05
3.5521720735486085e-05
3.3374800622041004e-05
3.119607677280956e-05
2.9024682013842942e-05
2.688924333187055e-05
2.479994856714343e-05
2.2746989887462054e-05
2.070551410086939e-05
1.8645283236857323e-05
1.654187094940199e-05
1.4385803101160327e-05
1.2186718545062258e-05
9.97118115730334e-06
7.774756523765728e-06
5.630778507193053e-06
3.559303590316739e-06
1.5597254453453662e-06
-3.906117683256016e-07
-2.331337735738988e-06
-4.309040025974203e-06
-6.3652647116561535e-06
-8.525934599493957e-06
-1.0794981387804144e-05
-1.3153643142722307e-05
-1.5565296809352508e-05
-1.7984352436578137e-05
-2.036692398128315e-05
-2.2680786430999688e-05
-2.4912448002738234e-05
-2.7069856432416645e-05
-2.9180159149337638e-05
-3.128290289723768e-05
-3.3419958325080105e-05
-3.562416621024402e-05
-3.790910274232194e-05
-4.026233714878162e-05
-4.264402938363501e-05
-4.499170073670837e-05
-4.7230648411598435e-05
-4.9288043740968644e-05
-5.110762133635645e-05
-5.266140243874408e-05
-5.395534815061261e-05
-5.5027216310783454e-05
-5.5936910836335345e-05
-5.6751724197728816e-05
-5.753044506083993e-05
-5.831080784282388e-05
-5.9103964023805695e-05
-5.989770384256417e-05
-6.0667562936939665e-05
-6.139246501420817e-05
-6.206996404132513e-05
-6.27260195913788e-05
-6.341569149561632e-05
-6.421378823597496e-05
-6.519755943130631e-05
-6.642604883090361e-05
-6.792193399077735e-05
-6.966118696374929e-05
-7.157383665357117e-05
-7.355611957654765e-05
-7.54912722840351e-05
-7.727402793764676e-05
-7.883311016619387e-05
-8.014677659801792e-05
-8.124839510171334e-05
-8.222148179176791e-05
-8.31858830547445e-05
-8.42783121852279e-05
-8.563103184457493e-05
-8.735219724605875e-05
-8.951053908002457e-05
-9.212601558393438e-05
-9.516706029701614e-05
-9.855421371702492e-05
-0.00010216925686489993
-0.00010586843204681773
-0.00010949794736295782
-0.00011290977331771217
-0.00011597581389745338
-0.0001185988816477494
-0.00012071946621582968
-0.00012231794772484873
-0.00012341254677270203
-0.00012405381632708059
-0.0001243167965938497
-0.0001242920438771135
-0.00012407662539596482
-0.0001237659020043624
-0.0001234465876557484
-0.00012319127832025026
-0.0001230544712564535
-0.00012307008921381513
-0.00012325064499328796
-0.0001235883051170826
-0.0001240580730105241
-0.0001246230041638332
-0.00012524082718607472
-0.00012587077912865177
-0.00012647915922949155
-0.00012704229485519718
-0.00012754634221005367
-0.0001279844115051581
-0.00012835251664603109
-0.00012864637036343618
-0.00012886080315068475
-0.00012899259995030753
-0.0001290461433621076
-0.00012903991914917123
-0.00012901115166215273
-0.00012901587626716032
-0.00012912263113188676
-0.00012939941531997206
-0.0001298952148283941
-0.00013061882496350933
-0.0001315185772410582
-0.00013246676526026767
-0.00013325209794778534
-0.00013358256957669192
-0.0001330999419562723
-0.00013140573928563495
-0.00012809730617496763
-0.00012281105726032453
-0.00011526858376848588
-0.0001053199621781595
-9.297779148781095e-05
-7.843560588210758e-05
-6.206569915912569e-05
-4.4394090782045654e-05
-2.6054006144741364e-05
-7.723142681351286e-06
9.94670969267264e-06
2.6397226954166857e-05
4.121784142904292e-05
5.4178355227997295e-05
6.523516367647379e-05
7.451099470651832e-05
8.225267617796766e-05
8.87751195756009e-05
9.440175707235834e-05
9.941174060525438e-05
0.00010400235631828867
0.00010827175075216548
0.00011222292051858018
0.00011578584392997595
0.00011885145092429812
0.00012130943169859023
0.00012308191361725272
0.0001241466391540257
0.0001245459837406121
0.00012438130973321443
0.0001237950900031878
0.00012294540362774777
0.00012197847802145822
0.00012100485246665297
0.0001200836226128225
0.00011921740862532975
0.00011835855272344627
0.00011742495763080033
0.00011632222333554235
0.00011496756091068484
0.00011331055279438202
0.00011134632645222105
0.00010911813131769376
0.00010670848681089557
0.00010422061756362695
0.00010175426049750198
9.938152085791092e-05
9.712879018507487e-05
9.49696062453912e-05
9.283088057686656e-05
9.061165067603277e-05
8.821020370492898e-05
8.55529348776368e-05
8.261739290697006e-05
7.944302980435376e-05
7.612610228374606e-05
7.279929703506215e-05
6.960087271775853e-05
6.664119828371954e-05
6.397554865752826e-05
6.159051975144567e-05
5.9407819082508764e-05
5.73044984136196e-05
5.51442755260528e-05
5.2811712596854645e-05
5.024048144727116e-05
4.742885504883038e-05
4.4439301818546913e-05
4.138347365937504e-05
3.839764016442128e-05
3.561563791027644e-05
3.3146172844987384e-05
3.1059080357402646e-05
2.9381800918773342e-05
2.8104072368382778e-05
2.7186759955634196e-05
2.6570444250056214e-05
2.618079818360193e-05
2.5930223075103014e-05
2.57176430937915e-05
2.5429786147193015e-05
2.494713712880248e-05
2.4156091201552082e-05
2.2966284904677033e-05
2.1329577268439263e-05
1.925560190922469e-05
1.6818805422652936e-05
1.4153527541362338e-05
1.1436552830064418e-05
8.859870373869197e-06
6.599155786087354e-06
4.784903711546375e-06
3.4827396433521925e-06
2.6873068334882097e-06
2.3308335421998825e-06
2.30392020259405e-06
2.483166668353831e-06
2.7587029559925754e-06
3.0548509514532243e-06
3.338980962641081e-06
3.6167141110902824e-06
3.915251889388205e-06
4.2599223116757e-06
4.651162369805315e-06
5.049463118758524e-06
5.374042718612776e-06
5.517461903288331e-06
5.373850905829583e-06
4.874046068235108e-06
4.018010477214844e-06
2.89445521725415e-06
1.6800024579718796e-06
6.151364168812736e-07
-3.962168417863491e-08
-5.8098438144126014e-08
6.994631524055924e-07
2.2498687074652883e-06
4.475922747833316e-06
7.144694904107111e-06
9.951565951356963e-06
1.2579921748331707e-05
1.4762377707729705e-05
1.6329156767665742e-05
1.7232762934458983e-05
1.754436557407307e-05
1.7424555575914123e-05
1.707736469098636e-05
1.6700040974124578e-05
1.6441235348097334e-05
1.6377126978098662e-05
1.650959880322933e-05
1.6784409288800982e-05
1.712205871251049e-05
1.745108965019885e-05
1.7733623318149013e-05
1.7975912317221934e-05
1.8221659189317695e-05
1.8531301807837825e-05
1.8954749945345118e-05
1.950689171850163e-05
2.0154079562037785e-05
2.0816197029926884e-05
2.1384007144109113e-05
2.1746834634128837e-05
2.182261760729216e-05
2.158178923002595e-05
2.1058361709110147e-05
2.0345303667651316e-05
1.9575668396771265e-05
1.8894672701042405e-05
1.84300394117313e-05
1.8267935411098334e-05
1.843991737695053e-05
1.8923104861799435e-05
1.9652269234672874e-05
2.0539590501754964e-05
2.1496199742335633e-05
2.2449634042666082e-05
2.335290772053713e-05
2.4183590901216136e-05
2.4934353624842108e-05
2.559904207277345e-05
2.6159755610148986e-05
2.658013250908825e-05
2.6808115657856266e-05
2.6788340154805854e-05
2.6480853197977133e-05
2.588021461402e-05
2.5028069234938744e-05
2.4013514019414396e-05
2.2958827897714257e-05
2.1992545494492874e-05
2.1216139680450896e-05
2.067337109121842e-05
2.0331668448273986e-05
2.0082415871853215e-05
1.976225821011541e-05
1.919172763946803e-05
1.822227751870064e-05
1.6779749797074746e-05
1.4892424734991743e-05
1.2695247090439655e-05
1.0407758650891685e-05
8.290097787995934e-06
6.5872581041634385e-06
5.475005461643988e-06
5.020561959774617e-06
5.167492682960655e-06
5.74821617008691e-06
6.520834975492907e-06
7.2212934217258585e-06
7.61859673510511e-06
7.560647117109676e-06
7.0010213322660635e-06
6.001869363608079e-06
4.713762090769262e-06
3.3383899371982035e-06
2.083393929104814e-06
1.1196504175571483e-06
5.499657734273197e-07
3.948574639901313e-07
5.967994736732769e-07
1.0400608195162207e-06
1.5800449468811069e-06
2.0745164224852913e-06
2.409510553976746e-06
2.514821558667405e-06
2.367116069050087e-06
1.9820452498621787e-06
1.3993483763993477e-06
6.662056471605385e-07
-1.7622643909381566e-07
-1.0998441348107057e-06
-2.089360236202484e-06
-3.136351097354342e-06
-4.230757686939828e-06
-5.353463597675359e-06
-6.472847619238595e-06
-7.546669327502113e-06
-8.528860249568291e-06
-9.379312055319355e-06
-1.0073943315516262e-05
-1.0612309319899241e-05
-1.1020706321431747e-05
-1.1349880826538104e-05
-1.166777295780436e-05
-1.2048863458223301e-05
-1.2562370906982637e-05
-1.326161085236494e-05
-1.4176326930109925e-05
-1.530895788192409e-05
-1.663491964135176e-05
-1.810631941144794e-05
-1.9658196620102605e-05
-2.1216357502746795e-05
-2.2705984849659067e-05
-2.4060302325310186e-05
-2.5228561555618317e-05
-2.6182504513447405e-05
-2.6920325100197827e-05
-2.746715834821565e-05
-2.78714112078246e-05
-2.8196891726311843e-05
-2.851162883095428e-05
-2.887527362171794e-05
-2.9327692721139354e-05
-2.9881469526205802e-05
-3.052033868038161e-05
-3.120417579444398e-05
-3.1879413136045865e-05
-3.2492198353812365e-05
-3.3000791527343956e-05
-3.3383919464252554e-05
-3.3643036368433394e-05
-3.3798294204098425e-05
-3.387991800637016e-05
-3.391802243163074e-05
-3.3934286766941415e-05
-3.3938209117682764e-05
-3.3929090072585146e-05
-3.390292225667996e-05
-3.38615935094536e-05
-3.3820818094046416e-05
-3.381334965630578e-05
-3.3885328965055864e-05
-3.408575089753206e-05
-3.445139156897434e-05
-3.499139599162091e-05
-3.567646556504309e-05
-3.643687439258905e-05
-3.717146454333822e-05
-3.776681123133987e-05
-3.812269186872907e-05
-3.817771492490343e-05
-3.7928193647713865e-05
-3.7434443176285405e-05
-3.681149303258592e-05
-3.620510174724321e-05
-3.575795262517125e-05
-3.557392315911594e-05
-3.568947355757926e-05
-3.606004891577485e-05
-3.65660721384432e-05
-3.7038346020872294e-05
-3.7297653462859384e-05
-3.7199378934201435e-05
-3.6672203877015656e-05
-3.574093807648528e-05
-3.4527174345465273e-05
-3.322680634316183e-05
-3.2069157012077494e-05
-3.126705094071109e-05
-3.096944304477927e-05
-3.122760558762896e-05
-3.1982546707246205e-05
-3.307616766222722e-05
-3.4283017744399615e-05
-3.535482738985395e-05
-3.606743507169717e-05
-3.625979995479807e-05
-3.585731177246462e-05
-3.4875762861358604e-05
-3.340699891865462e-05
-3.159128524662908e-05
-2.958395536697533e-05
-2.752450349214986e-05
-2.551494356134262e-05
-2.3611399279448383e-05
-2.1829249008649028e-05
-2.0158638321392216e-05
-1.85846702006446e-05
-1.710570756488998e-05
-1.574416354361558e-05
-1.4546614329430882e-05
-1.3573342082618715e-05
-1.2880575575923513e-05
-1.250084982718198e-05
-1.2427444525081368e-05
-1.2607646624338211e-05
-1.294699817120803e-05
-1.3323530343348347e-05
-1.3608209567981325e-05
-1.3686255195155346e-05
-1.3474055734800012e-05
-1.2928009983670377e-05
-1.204417104166239e-05
-1.085022930291701e-05
-9.393316088067782e-06
-7.727815783281055e-06
-5.90674657457753e-06
-3.978626701135439e-06
-1.989672627769984e-06
1.0664404427872557e-08
1.963890556950796e-06
3.7994913732553395e-06
5.436926572464107e-06
6.793120624055948e-06
7.794184066974187e-06
8.388651928239936e-06
8.558805855308348e-06
8.326844641007982e-06
7.753743587380619e-06
6.930346609392016e-06
5.962161157896061e-06
4.9509957961022065e-06
3.977543082755713e-06
3.0889614697991217e-06
2.294394044713231e-06
1.569421313563284e-06
8.681766021343268e-07
1.3987501194516194e-07
-6.546200173215902e-07
-1.5305135898660065e-06
-2.4741654192691676e-06
-3.4465552481351293e-06
-4.393807748733603e-06
-5.261537410204522e-06
-6.0088143651095335e-06
-6.617818693756718e-06
-7.096638222379668e-06
-7.474727734338517e-06
-7.79264699170018e-06
-8.089210076200466e-06
-8.389704683767173e-06
-8.698303572167448e-06
-8.99644309704169e-06
-9.247249095192323e-06
-9.4045556638805e-06
-9.42408209070198e-06
-9.27409066544959e-06
-8.943295982423084e-06
-8.444707376416634e-06
-7.815145153846734e-06
-7.111072996884758e-06
-6.401916765392814e-06
-5.762113627211461e-06
-5.262821102669367e-06
-4.963697805982106e-06
-4.90469260134807e-06
-5.097582193548903e-06
-5.5172288242493545e-06
-6.093190762470654e-06
-6.703231022576704e-06
-7.171102487403055e-06
-7.2713389473658396e-06
-6.743310690157578e-06
-5.315372528037805e-06
-2.73771023806647e-06
1.1800343695475816e-06
6.532405595879051e-06
1.329009483385465e-05
2.1286661528544745e-05
3.022416002815717e-05
3.969827566427438e-05
4.923962992584079e-05
5.8364574532350194e-05
6.662690920652155e-05
7.366197955535672e-05
7.921648760010857e-05
8.316056711876403e-05
8.548242065775932e-05
8.626917495779349e-05
8.56798217291406e-05
8.391674301416815e-05
8.120136671723726e-05
7.775733237034083e-05
7.380180679902282e-05
6.95430185871111e-05
6.518036263000154e-05
6.090302015980849e-05
5.688405234209517e-05
5.326906224978077e-05
5.016113874411516e-05
4.7606067378754734e-05
4.5582935556956624e-05
4.4004780752670205e-05
4.2731810081198784e-05
4.159645296796402e-05
4.04360000734808e-05
3.912589488763022e-05
3.760578173853392e-05
3.589161494472424e-05
3.40702978790284e-05
3.227763102950587e-05
3.06646075207498e-05
2.9360096134821976e-05
2.843885302088337e-05
2.790237583769571e-05
2.767679615877867e-05
2.7627750701237066e-05
2.7588151121010858e-05
2.739203065947447e-05
2.6906809174390402e-05
2.6057435179767505e-05
2.4838430465369776e-05
2.3313014138548675e-05
2.1601284755468464e-05
1.9861184445895143e-05
1.826637621639677e-05
1.6984421277515465e-05
1.6157282003117877e-05
1.5884856600933387e-05
1.621151532918331e-05
1.711569920957175e-05
1.8503429799478582e-05
2.0207599869453706e-05
2.1995535459850184e-05
2.3586974639910368e-05
2.4683044924814856e-05
2.5004250403724783e-05
2.4332560269264613e-05
2.2550342046150958e-05
1.966798744743752e-05
1.5833176331273167e-05
1.1317801731336064e-05
6.483027728403124e-06
1.7277155372611618e-06
-2.5706788376467232e-06
-6.111680569456842e-06
-8.713299145986629e-06
-1.0331794156930018e-05
-1.1056605961385384e-05
-1.1082511798936168e-05
-1.0665622671211835e-05
-1.007279465670161e-05
-9.534815975757007e-06
-9.212280795471897e-06
-9.179782130604424e-06
-9.429724495453672e-06
-9.892655575502283e-06
-1.0467547591178254e-05
-1.1053728868194438e-05
-1.1576570275204286e-05
-1.2001413703924443e-05
-1.2333887240982822e-05
-1.2608617283053997e-05
-1.2871313518000597e-05
-1.3160469310389703e-05
-1.3494245022407762e-05
-1.386585424739043e-05
-1.4247781753445562e-05
-1.4602417945257196e-05
-1.4895016767598366e-05
-1.5104668321222224e-05
-1.52301121008615e-05
-1.5289178458409883e-05
-1.531272569777968e-05
-1.5335499621603216e-05
-1.5387000627450708e-05
-1.548514035745604e-05
-1.5634413052217358e-05
-1.582885937339553e-05
-1.6058668066202728e-05
-1.631820438487789e-05
-1.6612827294129215e-05
-1.6962160711800003e-05
-1.739844379346943e-05
-1.7959969227633175e-05
-1.868108610819284e-05
-1.9581413630959048e-05
-2.0657436641517152e-05
-2.1879308614161006e-05
-2.319445730527134e-05
-2.453772317756134e-05
-2.5845752238303922e-05
-2.7071829051333883e-05
-2.8196824551185528e-05
-2.9232733037989278e-05
-3.021726336249473e-05
-3.120059661389018e-05
-3.222792602267419e-05
-3.332294489215912e-05
-3.44774973729423e-05
-3.565105529308692e-05
-3.6780927169323065e-05
-3.780092847356348e-05
-3.8663593830403394e-05
-3.935971409251879e-05
-3.9929464746187054e-05
-4.046154546636883e-05
-4.107994177897547e-05
-4.1921189254442833e-05
-4.310738869499089e-05
-4.472101024267505e-05
-4.678659036232429e-05
-4.9262200727881254e-05
-5.2040888591817366e-05
-5.49600643003433e-05
-5.781568403385623e-05
-6.037820894803505e-05
-6.240840049294945e-05
-6.367241149552198e-05
-6.395667692291789e-05
-6.30833182791708e-05
-6.092603991045895e-05
-5.742511224293018e-05
-5.2598617815387974e-05
-4.6546398038423834e-05
-3.944363831896396e-05
-3.152291435039942e-05
-2.3046397977973787e-05
-1.4272914544261488e-05
-5.426590130517649e-06
3.325914564161263e-06
1.1884369507875239e-05
2.0208282224183544e-05
2.8296606015554296e-05
3.6159215115436434e-05
4.3787294884996886e-05
5.112968191618062e-05
5.8080401524541195e-05
6.447984731739639e-05
7.012904615409242e-05
7.48139496701754e-05
7.833509842102457e-05
8.053741373691209e-05
8.133516899547535e-05
8.072817511773065e-05
7.880668207342461e-05
7.574425784741686e-05
7.177974899384124e-05
6.719109974701916e-05
6.226503345130068e-05
5.7267149195810016e-05
5.2416750589543076e-05
4.7869763664204496e-05
4.371163026375918e-05
3.9960379209838366e-05
3.6578479059143294e-05
3.349080995998392e-05
3.0605333083275163e-05
2.783287947309578e-05
2.510292803016959e-05
2.2373197862331524e-05
1.9632161329070692e-05
1.6894953589813752e-05
1.4194358789690646e-05
1.1569365809193782e-05
9.054052854429128e-06
6.6692342016299455e-06
4.418467795026552e-06
2.288883386131782e-06
2.56126283418135e-07
-1.7081997963334427e-06
-3.628663786310277e-06
-5.519710092664259e-06
-7.382381459290573e-06
-9.2046518085406e-06
-1.0965020828329615e-05
-1.2638242084835637e-05
-1.4201624512056864e-05
-1.5640353580959893e-05
-1.6950685512579636e-05
-1.814052284791018e-05
-1.9227571164436315e-05
-2.023581122919668e-05
-2.1191284836228142e-05
-2.2118173586727987e-05
-2.303591355469227e-05
-2.3957734166012158e-05
-2.4890634401037993e-05
-2.583649643899794e-05
-2.6793847103038423e-05
-2.7759735510138336e-05
-2.873127720501006e-05
-2.9706561084136858e-05
-3.068476834171859e-05
-3.166549021754523e-05
-3.2647365619284415e-05
-3.36263109343606e-05
-3.459378498495307e-05
-3.553569198965834e-05
-3.643260389926427e-05
-3.7261874788536126e-05
-3.8001821860054334e-05
-3.863743756109573e-05
-3.9166211875804056e-05
-3.960189874546871e-05
-3.997386461415701e-05
-4.032033209716749e-05
-4.067541917287914e-05
-4.105203624604736e-05
-4.1424783421348696e-05
-4.171821718455384e-05
-4.180561250494594e-05
-4.1521410814749106e-05
-4.068722255311897e-05
-3.9147356330523664e-05
-3.680649748171564e-05
-3.3660462111518335e-05
-2.9811628067475594e-05
-2.5463741042793477e-05
-2.0895609757315653e-05
-1.6418459053925404e-05
-1.2325930768629313e-05
-8.847700565409424e-06
-6.116839132367291e-06
-4.157610076591281e-06
-2.8953049809278135e-06
-2.184348526308894e-06
-1.8466963969894045e-06
-1.710588913961058e-06
-1.6404636389824035e-06
-1.551953092214895e-06
-1.4104231265888534e-06
-1.2161173370097407e-06
-9.823850545698146e-07
-7.14812215387013e-07
-3.9809703268894005e-07
5.377582586751769e-09
5.45214579394525e-07
1.264608463418893e-06
2.18013478379644e-06
3.2666357196467476e-06
4.452724926452978e-06
5.629407216244867e-06
6.670514141294713e-06
7.460177104022321e-06
7.920379929934046e-06
8.031363284217563e-06
7.839364725422636e-06
7.4493925590465944e-06
7.0045652631930885e-06
6.656960884358185e-06
6.536999632460299e-06
6.728589002559434e-06
7.255577914185229e-06
8.082006660961963e-06
9.12508895560263e-06
1.0276807177324669e-05
1.1428231933376835e-05
1.2490572053181535e-05
1.3408417483187648e-05
1.4163134658309673e-05
1.4767147475731174e-05
1.5252109864920388e-05
1.565518220586125e-05
1.6007553873670972e-05
1.632817391022429e-05
1.6623803823442324e-05
1.6894547232051053e-05
1.7142449241843144e-05
1.7379943035775938e-05
1.763499665000207e-05
1.7950725765456003e-05
1.8378764976988648e-05
1.896747467328783e-05
1.974767499397031e-05
2.0719628521951345e-05
2.1845136492875e-05
2.304775381090348e-05
2.422237833706403e-05
2.5253170508213638e-05
2.603643496102508e-05
2.6503358118682194e-05
2.6636899045813962e-05
2.6478005007475726e-05
2.6118626941668878e-05
2.5682267830614622e-05
2.5296173247042068e-05
2.506179341904307e-05
2.503099868180791e-05
2.5194344149563085e-05
2.5484676031807335e-05
2.5795334919907586e-05
2.6008273153822273e-05
2.6024706450727375e-05
2.5790261793293358e-05
2.530816589945982e-05
2.463738137185435e-05
2.3876755777536633e-05
2.3139990922412894e-05
2.2528498881656246e-05
2.210939341189761e-05
2.1904019374525092e-05
2.1889196170159777e-05
2.200975004846568e-05
2.2197966889994323e-05
2.2394068822548022e-05
2.256200284962162e-05
2.2696532187236677e-05
2.282025877436223e-05
2.297201139059493e-05
2.3190282159339282e-05
2.3496576129254753e-05
2.388344832220949e-05
2.4310735211254584e-05
2.4711376450700698e-05
2.500575249960879e-05
2.512118566843499e-05
2.5011702010325425e-05
2.4672753623456768e-05
2.414655304449664e-05
2.3515847250218714e-05
2.2886884963410608e-05
2.236527301760825e-05
2.203056341463335e-05
2.1916103116186066e-05
2.1999617639221225e-05
2.2207379355974306e-05
2.2431296610944013e-05
2.255481283501313e-05
2.2481100347198494e-05
2.215636373708984e-05
2.1582337858687263e-05
2.0814930925282656e-05
1.994962270849805e-05
1.9097656301942626e-05
1.835931713624794e-05
1.7801091748279382e-05
1.7442173022322696e-05
1.7253073983667702e-05
1.7165840053263008e-05
1.7092437368539347e-05
1.694611245299992e-05
1.6660265532545997e-05
1.6200590569332397e-05
1.5568428011410735e-05
1.4795731183863342e-05
1.3934051912413584e-05
1.304102354452661e-05
1.2167824123281949e-05
1.1350229075699788e-05
1.0604506545884804e-05
9.928015117881799e-06
9.303298973053378e-06
8.703948394253233e-06
8.100534703853686e-06
7.465414246974055e-06
6.775901375703807e-06
6.015981829962849e-06
5.177164680291706e-06
4.2591397761819426e-06
3.2706275743068097e-06
2.230305103758036e-06
1.167174201069684e-06
1.1943812608674601e-07
-8.689493716666352e-07
-1.7543452619396976e-06
-2.5014722138802388e-06
-3.0918768513267997e-06
-3.530519520982776e-06
-3.8481742253091745e-06
-4.098063849817669e-06
-4.3465889300205764e-06
-4.659747814721756e-06
-5.088351127465946e-06
-5.655876670679817e-06
-6.3524606999218975e-06
-7.137073969116737e-06
-7.94774383750533e-06
-8.717387174385949e-06
-9.391123472324027e-06
-9.940401623860338e-06
-1.0370107394971382e-05
-1.071679833385941e-05
-1.1038745784150402e-05
-1.1400781692148303e-05
-1.1858356326635824e-05
-1.2445304446532109e-05
-1.3168588299854839e-05
-1.401112836396303e-05
-1.4941406889654687e-05
-1.592655637384758e-05
-1.694469327024084e-05
-1.7992585318036145e-05
-1.9086235883836386e-05
-2.0254184649106517e-05
-2.1525607697907242e-05
-2.291697320758137e-05
-2.4421560686945415e-05
-2.6005393614736975e-05
-2.7611272875735453e-05
-2.9170184648371148e-05
-3.061712594759741e-05
-3.19070229617918e-05
-3.302631338582741e-05
-3.399692568602708e-05
-3.487143823501443e-05
-3.572053225839582e-05
-3.6615830954606435e-05
-3.761235583088725e-05
-3.8734887060378127e-05
-3.99715142560605e-05
-4.1275878177372625e-05
-4.257748138279129e-05
-4.3797513117884324e-05
-4.486636788324098e-05
-4.5738737323592374e-05
-4.640285615751558e-05
-4.6881954272800164e-05
-4.722780327566111e-05
-4.7508002127142415e-05
-4.778995473790694e-05
-4.812511987896133e-05
-4.853697795867365e-05
-4.901532162187268e-05
-4.951812389648821e-05
-4.998064224808087e-05
-5.0329888277174464e-05
-5.0501422697011314e-05
-5.0454856712946246e-05
-5.018459477609088e-05
-4.972325514375791e-05
-4.913671585074969e-05
-4.8511562584054365e-05
-4.793746087811246e-05
-4.748822067153777e-05
-4.7205744521391966e-05
-4.709051571570366e-05
-4.7100880844032764e-05
-4.7161419398679825e-05
-4.717862811155619e-05
-4.706048084577517e-05
-4.673556921463103e-05
-4.6167694423688915e-05
-4.5362912275863986e-05
-4.436782783811216e-05
-4.325993241335737e-05
-4.213248429508265e-05
-4.1077466250552544e-05
-4.017029889807597e-05
-3.945925296689051e-05
-3.8961084160602995e-05
-3.8662667381559227e-05
-3.852678229751754e-05
-3.8499154416930216e-05
-3.851372493629112e-05
-3.849400773725466e-05
-3.835007422737603e-05
-3.7972678103128656e-05
-3.7227641330083266e-05
-3.595429134613739e-05
-3.3971167380867505e-05
-3.109049651325168e-05
-2.7140553927068674e-05
-2.199267274900677e-05
-1.5588053465859653e-05
-7.959090683552416e-06
7.592484071572849e-07
1.0330692370414132e-05
2.043207253996262e-05
3.067923967619699e-05
4.066120835084516e-05
4.997823806503595e-05
5.82791974052722e-05
6.529375553222969e-05
7.085560242060064e-05
7.491392551995669e-05
7.7531685295986e-05
7.887075604087016e-05
7.916563727419978e-05
7.868905450228789e-05
7.771413840883643e-05
7.647870938904922e-05
7.515720435247481e-05
7.384477706723573e-05
7.255611267456702e-05
7.123881840507847e-05
6.979840714148205e-05
6.812951142375266e-05
6.614665119419464e-05
6.380803469315943e-05
6.112756678199798e-05
5.817312204284009e-05
5.5052484822236246e-05
5.189125650627807e-05
4.8808684486213394e-05
4.589736234987787e-05
4.321118243204357e-05
4.0763338543390935e-05
3.853337824748141e-05
3.648008308527762e-05
3.455586968807162e-05
3.2718642220825694e-05
3.093838381225911e-05
2.9197747764152354e-05
