value
-5.047583069
-2.392928061
-0.084977789
1.587093408
2.435888557
2.403810152
1.568470711
0.124787351
-1.652688398
-3.460010997
-5.017144699
-6.114356969
-6.643259499
-6.607284996
-6.110607162
-5.328786218
-4.467849456
-3.720440624
-3.227804371
-3.054800407
-3.182267956
-3.517493525
-3.919964886
-4.236670511
-4.339432888
-4.156444183
-3.69136116
-3.025822437
-2.304645814
-1.706614485
-1.406917867
-1.539253655
-2.165816208
-3.261764397
-4.717601299
-6.358922036
-7.979129543
-9.377903389
-10.39710651
-10.94667096
-11.01555938
-10.66647191
-10.0166525
-9.210063289
-8.387709533
-7.66274919
-7.105353296
-6.739578163
-6.551468659
-6.504977842
-6.56066488
-6.691835187
-6.893783625
-7.183764646
-7.591730649
-8.144191733
-8.845269444
-9.65981987
-10.50326814
-11.24159962
-11.70301361
-11.70039029
-11.06136054
-9.660854254
-7.449971482
-4.475180651
-0.88327763
3.089974851
7.146554142
10.96428292
14.2401317
16.73145892
18.28825948
18.87110127
18.55195926
17.49810808
15.94207476
14.14290943
12.345349
10.7436417
9.455871926
8.512754727
7.862367787
7.389538725
6.946027508
6.385670201
5.597681333
4.53161754
3.209111076
1.720115696
0.204544018
-1.176833972
-2.276136412
-2.989669588
-3.280157362
-3.185142107
-2.809717172
-2.305116398
-1.837759015
-1.555419361
-1.557765238
-1.877445021
-2.475460654
-3.251337325
-4.065371403
-4.767768707
-5.228316497
-5.360543377
-5.135903449
-4.585883387
-3.792477053
-2.869668468
-1.940041034
-1.111212706
-0.456486943
-0.003057858
0.270433423
0.426932318
0.556193917
0.755150737
1.107257686
1.66489933
2.438455156
3.394359797
4.462616625
5.552096852
6.570114339
7.441735983
8.12439671
8.614631574
8.945765397
9.177633485
9.3812287
9.622117642
9.946360518
10.37163901
10.88473142
11.44487897
11.99141595
12.45354761
12.76034742
12.84967095
12.6754008
12.21293505
11.46295697
10.45331747
9.238530079
7.89619872
6.5199
5.208700564
4.054477484
3.129211677
2.475027976
2.099594214
1.97841375
2.063742365
2.297867347
2.627016255
3.011817744
3.431245283
3.879078719
4.354454446
4.850193187
5.343539153
5.793311431
6.145369988
6.345367717
6.354971424
6.166086652
5.807780621
5.342635433
4.852586718
4.417824455
4.094843041
3.900331386
3.806042153
3.746556898
3.638001913
3.402476573
2.991224421
2.399900878
1.671552921
0.886449003
0.141639815
-0.474013399
-0.902463005
-1.13072173
-1.193203137
-1.161964168
-1.127846055
-1.177706843
-1.37365905
-1.739413156
-2.256807547
-2.872960216
-3.515881251
-4.11444101
-4.617699196
-5.008894938
-5.310738659
-5.580691189
-5.897215341
-6.340069077
-6.969145618
-7.806818793
-8.828060871
-9.960866106
-11.09713014
-12.11170715
-12.88552184
-13.32780774
-13.39292771
-13.0886397
-12.47467913
-11.65260404
-10.74948417
-9.898869211
-9.222454619
-8.815140814
-8.735099563
-8.999398938
-9.584970227
-10.43429875
-11.4650525
-12.58268441
-13.69466818
-14.72446785
-15.62284555
-16.3740446
-16.99503584
-17.52741555
-18.02339951
-18.52911933
-19.06947813
-19.63872425
-20.19956216
-20.69135197
-21.04537821
-21.20304786
-21.13185543
-20.83437234
-20.34731107
-19.73042266
-19.04788688
-18.34715703
-17.64127858
-16.90017774
-16.05437167
-15.01142348
-13.68197794
-12.00923496
-9.994076987
-7.708345065
-5.291092209
-2.926607295
-0.807658683
0.908473241
2.141189441
2.915048664
3.368175518
3.737753989
4.324983202
5.446424446
7.381411875
10.32558219
14.35873579
19.43185473
25.37412203
31.91714256
38.73095104
45.4651466
51.78859369
57.42228289
62.16173298
65.88732521
68.56286214
70.22420689
70.9609462
70.89457873
70.15677292
68.87082745
67.13868091
65.03475801
62.60674328
59.88222727
56.87927801
53.61851196
50.13423082
46.48258546
42.74536844
39.02874316
35.45687313
32.16101
29.26520312
26.87045551
25.03978578
23.78703033
23.0720532
22.8041518
22.85391228
23.07188035
23.31065146
23.44587976
23.39168346
23.10713251
22.59269703
21.8781044
21.00522219
20.01069739
18.9128418
17.70581472
16.36203665
14.84163278
13.10610698
11.13267843
8.925795101
6.523109307
3.994431972
1.433638936
-1.055043189
-3.373735727
-5.447242753
-7.235648447
-8.740508195
-10.00325247
-11.09600247
-12.10652786
-13.12025864
-14.20288625
-15.38705436
-16.66595146
-17.99536549
-19.30411206
-20.5109571
-21.54457146
-22.36208803
-22.96183307
-23.38691905
-23.71844646
-24.05959344
-24.51422074
-25.16514456
-26.0574773
-27.19127141
-28.52534912
-29.99122932
-31.51326312
-33.02928008
-34.50582376
-35.94357405
-37.3714344
-38.83117157
-40.35739318
-41.95912441
-43.608821
-45.24244535
-46.77091495
-48.09983466
-49.15198738
-49.88630056
-50.3081078
-50.4680926
-50.45052346
-50.3542972
-50.27207462
-50.27296992
-50.39289535
-50.63425892
-50.97402568
-51.37695061
-51.80964218
-52.25125864
-52.69795852
-53.16030435
-53.6550442
-54.19442476
-54.77691536
-55.38273091
-55.97598478
-56.51316414
-56.95556398
-57.28196535
-57.49758244
-57.6361767
-57.75397428
-57.91615571
-58.17868367
-58.56962925
-59.07463066
-59.63054904
-60.12985911
-60.4361016
-60.40825542
-59.929669
-58.93571645
-57.43397473
-55.51159562
-53.32656945
-51.08243852
-48.98926306
-47.2167393
-45.84776019
-44.84185922
-44.0174507
-43.05935022
-41.5538551
-39.04826255
-35.12611932
-29.48502313
-22.00169805
-12.77019942
-2.103590319
9.503487476
21.44575457
33.09879112
43.91338473
53.49414184
61.64710406
68.38792517
73.9108032
78.5266743
82.58516492
86.39718931
90.17360945
93.99072919
97.78690845
101.3878313
104.5523929
107.0278184
108.6019607
109.1426067
108.6174177
107.092841
104.7148566
101.6777781
98.18890776
94.4365305
90.56691363
86.67330446
82.79713321
78.93929486
75.07782965
71.18763144
67.25791585
63.30394696
59.37081371
55.52870501
51.86092421
48.44747973
45.34812085
42.58886653
40.15531341
37.99446097
36.0248137
34.15256788
32.29021519
30.37325486
28.37108807
26.28953407
24.16446376
22.04828867
19.99287928
18.03341196
16.1773943
14.40175055
12.65871888
10.88898581
9.038582563
7.075098252
4.998971877
2.846933755
0.686708519
-1.395691599
-3.312953148
-4.993659906
-6.395746146
-7.513304768
-8.375541612
-9.038572036
-9.572432097
-10.04673024
-10.51852951
-11.0252678
-11.58399299
-12.19633413
-12.85698191
-13.56249786
-14.31729678
-15.13465021
-16.03225168
-17.02377363
-18.10935853
-19.26862483
-20.4592609
-21.6226928
-22.69607158
-23.62761914
-24.39093742
-24.99376098
-25.47795197
-25.90995838
-26.36377249
-26.90078607
-27.55211394
-28.3085522
-29.12140494
-29.91445127
-30.60416105
-31.12282367
-31.43826839
-31.5646383
-31.56102086
-31.51797612
-31.53525244
-31.69637981
-32.04676224
-32.58110579
-33.24369163
-33.94170598
-34.56841073
-35.03029058
-35.27117406
-35.28703194
-35.1275321
-34.88384368
-34.66572488
-34.57366662
-34.67308624
-34.97696682
-35.44111549
-35.97300977
-36.4519158
-36.7554707
-36.78680299
-36.49664488
-35.89644715
-35.06064675
-34.11832009
-33.23600141
-32.59423785
-32.36055062
-32.66116523
-33.55357406
-35.00206908
-36.85896458
-38.85509257
-40.60374538
-41.62190113
-41.37083242
-39.31503883
-34.99435541
-28.10000108
-18.54237604
-6.497628033
7.578013347
22.97246264
38.78034727
53.99667522
67.62843276
78.80743828
86.88740002
91.51084837
92.63678371
90.52644478
85.69134299
78.81344572
70.6511631
61.94601811
53.34347555
45.33779397
38.24577109
32.2089096
27.21886407
23.15786402
19.84461599
17.07700977
14.66539692
12.45352975
10.32753566
8.21572886
6.083136357
3.924316735
1.756789575
-0.384192447
-2.450093051
-4.383932316
-6.126488875
-7.624015607
-8.836570714
-9.745256539
-10.3564524
-10.70164317
-10.83252262
-10.81233518
-10.70550099
-10.56810544
-10.44163235
-10.35138244
-10.30956542
-10.32150929
-10.39231834
-10.53107237
-10.75046201
-11.06139336
-11.46405634
-11.93858344
-12.43915655
-12.89492306
-13.21939446
-13.32752493
-13.15708423
-12.68902284
-11.96092584
-11.06869235
-10.15413667
-9.37970373
-8.895015716
-8.802532951
-9.130455411
-9.819804744
-10.72965932
-11.66049365
-12.39148047
-12.72440546
-12.52521947
-11.75452407
-10.48036353
-8.870146015
-7.162659019
-5.625181652
-4.503845051
-3.977012954
-4.121158472
-4.896448454
-6.15535099
-7.672782657
-9.191637207
-10.47409684
-11.34780897
-11.73719265
-11.67355094
-11.28246914
-10.75201514
-10.28935485
-10.07564706
-10.22904531
-10.78340427
-11.6864544
-12.81669459
-14.01410136
-15.11689649
-15.99567198
-16.57730134
-16.85392733
-16.87614135
-16.73327164
-16.52654058
-16.34211519
-16.23060122
-16.19760707
-16.20720589
-16.19711629
-16.10179577
-15.87783422
-15.52530706
-15.09918336
-14.70641582
-14.48678563
-14.57866657
-15.07424709
-15.97191
-17.13577537
-18.27314669
-18.93915446
-18.57401612
-16.57236062
-12.37699382
-5.582835569
3.967743336
16.11788255
30.37383779
45.93625389
61.78416845
76.80029318
89.91739108
100.2606488
107.2610432
110.7199128
110.8142211
108.0433876
103.1296307
96.89214791
90.11938984
83.46242779
77.3664401
72.04820831
67.51745668
63.6312218
60.16505072
56.88362279
53.59622509
50.1882759
46.62707505
42.94631882
39.21815321
35.52287344
31.92489372
28.46014822
25.13589632
21.9402437
18.85644385
15.87655611
13.01012693
10.28567683
7.745193946
5.433860298
3.388369885
1.627243925
0.145637238
-1.084363794
-2.108548672
-2.982356152
-3.762104118
-4.49804251
-5.230783843
-5.991406788
-6.804198947
-7.690032538
-8.668100288
-9.754321344
-10.95602567
-12.26415316
-13.64562462
-15.03922771
-16.35796379
-17.49929409
-18.36245519
-18.86963681
-18.98608271
-18.73370021
-18.19380823
-17.49704791
-16.80164624
-16.26432136
-16.01026209
-16.10914077
-16.56280486
-17.30745219
-18.2294861
-19.19085991
-20.0574857
-20.72380329
-21.12798201
-21.2550239
-21.12841696
-20.79397077
-20.30122357
-19.68789978
-18.97139995
-18.14877396
-17.20390148
-16.11851956
-14.88288129
-13.50237818
-11.99815943
-10.40202994
-8.747936861
-7.063470762
-5.364647855
-3.655907486
-1.935280785
-0.202799171
1.530925855
3.239061373
4.877963033
6.392113546
7.723358357
8.821950283
9.656424879
10.21964932
10.52934663
10.62271898
10.54619729
10.34257845
10.0386468
9.636603008
9.112089577
8.420295369
7.50972816
6.341151091
4.907398276
3.248839357
1.459543483
-0.319173234
-1.918368449
-3.171487267
-3.948918965
-4.18929795
-3.919615662
-3.258153432
-2.397958922
-1.57321293
-1.01517497
-0.907266594
-1.34941799
-2.339834867
-3.778285322
-5.489881214
-7.263467604
-8.895415845
-10.2286946
-11.17874016
-11.74131185
-11.98212401
-12.01234938
-11.95704373
-11.92455158
-11.98395335
-12.15502774
-12.41178959
-12.69732128
-12.94514482
-13.10128272
-13.14152822
-13.08001578
-12.96744444
-12.87969738
-12.89963866
-13.09622058
-13.50552587
-14.11796739
-14.87465683
-15.67411991
-16.38837171
-16.88527645
-17.05257579
-16.81841399
-16.16386616
-15.12482443
-13.78320272
-12.2500939
-10.64547227
-9.079657588
-7.640823261
-6.390639964
-5.367432879
-4.593908302
-4.085334701
-3.854395929
-3.9106107
-4.254626965
-4.870000498
-5.716429097
-6.72831619
-7.82095397
-8.90404686
-9.899607877
-10.75938593
-11.47659196
-12.08796746
-12.66482003
-13.29476365
-14.05861054
-15.00835604
-16.15203517
-17.4494594
-18.81998555
-20.16034906
-21.36807751
-22.36473578
-23.11349916
-23.62713218
-23.96485692
-24.21916729
-24.49578482
-24.89125432
-25.47297376
-26.26576363
-27.24758418
-28.35501242
-29.49700529
-30.57374645
-31.496378
-32.20337611
-32.67025349
-32.91095473
-32.97134897
-32.91709213
-32.81931764
-32.74179523
-32.73235718
-32.81984342
-33.01609021
-33.32112817
-33.72913763
-34.23292554
-34.82556289
-35.49900935
-36.24066778
-37.02953886
-37.83380989
-38.61130346
-39.31338278
-39.89191529
-40.30801149
-40.54069351
-40.59350587
-40.49735334
-40.30846615
-40.10126015
-39.95686193
-39.94904518
-40.13006836
-40.51921063
-41.09654904
-41.80371239
-42.55212061
-43.23779113
-43.76042375
-44.04342783
-44.05106559
-43.79910888
-43.35636777
-42.83600819
-42.37745033
-42.12144767
-42.18229776
-42.62172234
-43.42865248
-44.50806505
-45.68043902
-46.69172721
-47.23233179
-46.96264876
-45.54234474
-42.6605396
-38.06432973
-31.58346903
-23.14946373
-12.80781339
-0.722625648
12.82669856
27.4566317
42.69820574
58.02271834
72.87374822
86.70431571
99.0171793
109.4050493
117.5862194
123.4302822
126.9687616
128.3870213
127.9966456
126.1911345
123.3913648
119.9898598
116.3036736
112.5442283
108.8089263
105.0946216
101.3282909
97.40679485
93.23634982
88.76345214
83.99197075
78.98494929
73.85322142
68.73540362
63.77479683
59.0982834
54.80087028
50.9376744
47.52339732
44.53803339
41.93680528
39.66204721
37.65480873
35.86421876
34.25310541
32.7990383
31.49084524
30.32165585
29.28043076
28.34447468
27.47536869
26.62000546
25.71709496
24.70794409
23.54892746
22.22228303
20.74198729
19.15255735
17.52046226
15.91990443
14.41642983
13.05259988
11.83954226
10.75668969
9.75983621
8.795397239
7.81707471
6.800468141
5.751724372
4.70792898
3.729157907
2.884307315
2.234401835
1.81763665
1.639824535
1.672400719
1.858140632
2.122828154
2.389769701
2.593584041
2.690161405
2.660894133
2.510874983
2.262304785
1.94545567
1.589943125
1.218696863
0.846004925
0.479624094
0.125605108
-0.206406309
-0.49975691
-0.730924214
-0.873561929
-0.905345017
-0.815393151
-0.609675902
-0.312307189
0.038117158
0.396361368
0.720283024
0.979263887
1.158209045
1.255133417
1.272365829
1.203729631
1.021966228
0.671443714
0.070395206
-0.875432912
-2.249252187
-4.094857464
-6.39091977
-9.035977471
-11.85030673
-14.59694299
-17.01913011
-18.88676902
-20.0413993
-20.42883713
-20.11105691
-19.25368148
-18.0913226
-16.8784565
-15.83710184
-15.11334625
-14.75253631
-14.69829429
-14.81468256
-14.92533242
-14.85958765
-14.49456223
-13.78361858
-12.76555525
-11.55366506
-10.30852612
-9.201817317
-8.379919723
-7.935419991
-7.892218553
-8.206464693
-8.781850442
-9.49471229
-10.2225305
-10.86909023
-11.38074534
-11.75057282
-12.01018125
-12.21189534
-12.406336
-12.62152273
-12.84924245
-13.04258817
-13.12566416
-13.01317928
-12.63484898
-11.95798169
-11.00182612
-9.839241597
-8.58454786
-7.370133733
-6.317511399
-5.510111285
-4.974761371
-4.676580703
-4.528552603
-4.413274379
-4.21132242
-3.829136099
-3.219691958
-2.391343739
-1.403374841
-0.35010305
0.662104462
1.539370265
2.221124998
2.693303615
2.991940526
3.197087198
3.418473291
3.775291436
4.372975447
5.28002483
6.507953558
7.99736666
9.612932768
11.14946833
12.35030609
12.93749458
12.65124492
11.29370651
8.770138936
5.119509936
0.527086299
-4.68602222
-10.09738487
-15.23798432
-19.65874322
-22.9973725
-25.03341432
-25.72132224
-25.19552279
-23.74659483
-21.7727717
-19.7149103
-17.98532501
-16.90138321
-16.63377333
-17.1772701
-18.34893548
-19.81516373
-21.14492182
-21.88221727
-21.62681545
-20.10940048
-17.24672101
-13.16454285
-8.181585959
-2.755315146
2.601106028
7.414281658
11.33826828
14.21510511
16.09441086
17.20749462
17.90208975
18.55320865
19.47126603
20.82902714
22.62402282
24.68418463
26.71394582
28.36859132
29.33848386
29.42325982
28.57929454
26.93064931
24.74248725
22.36443699
20.15768667
18.42245529
17.34151907
16.95112619
17.14405727
17.70233796
18.35080867
18.81874516
18.89576414
18.47038199
17.54417259
16.22034265
14.67133222
13.09445846
11.66670567
10.50913811
9.668329142
9.117500926
8.774976945
8.533373124
8.290751623
7.975255999
7.55735987
7.047948554
6.484749144
5.91284184
5.366223958
4.856409505
4.371268023
3.883676615
3.366223617
2.806191561
2.214992586
1.628162563
1.09532317
0.663094534
0.356564831
0.165687045
0.041604243
-0.095139906
-0.336263164
-0.762230024
-1.420196954
-2.309738813
-3.380478113
-4.542339417
-5.685598522
-6.705268177
-7.523411302
-8.103885805
-8.456400576
-8.629794592
-8.697227274
-8.737754393
-8.819193535
-8.986302641
-9.256480274
-9.623000475
-10.06379572
-10.55248106
-11.0679733
-11.59976634
-12.14748351
-12.7153059
-13.30368572
-13.90180358
-14.48412569
-15.01313433
-15.44822483
-15.7585565
-15.93604249
-16.00421238
-16.01957177
-16.06408632
-16.2299472
-16.60007301
-17.22917939
-18.13028378
-19.27018948
-20.57518877
-21.94561166
-23.27567867
-24.47398793
-25.48011854
-26.27409143
-26.87731177
-27.34553205
-27.75584849
-28.19054512
-28.72074795
-29.39252077
-30.21744202
-31.16902333
-32.18564156
-33.17992521
-34.05367462
-34.71637632
-35.10433884
-35.19675251
-35.02494261
-34.6719874
-34.26165544
-33.93790539
-33.83841805
-34.06723289
-34.67214455
-35.63190907
-36.85658168
-38.20174875
-39.49451875
-40.56651349
-41.28735389
-41.59170117
-41.49396771
-41.08720136
-40.52591198
-39.9960455
-39.67812228
-39.71105135
-40.16392925
-41.02129374
-42.18432706
-43.48717975
-44.72473788
-45.68638795
-46.18987729
-46.11006659
-45.39880509
-44.09381561
-42.31593529
-40.25511277
-38.14626861
-36.23673918
-34.74785006
-33.83437162
-33.54707731
-33.80490485
-34.38363565
-34.92690248
-34.98238579
-34.06150407
-31.71558644
-27.61670344
-21.62839561
-13.85155835
-4.634153046
5.460210517
15.72171032
25.39073126
33.76434391
40.29351778
44.65344184
46.77475777
46.83144016
45.18969347
42.32966774
38.75644135
34.91767983
31.1426363
27.61154784
24.35746325
21.29579729
18.27192896
15.11486968
11.68560462
7.911626946
3.803412134
-0.54707291
-4.982285549
-9.303979713
-13.30127924
-16.77722451
-19.57078812
-21.57307759
-22.73762149
-23.08504431
-22.70220794
-21.73542377
-20.37708225
-18.84536153
-17.3576773
-16.10004427
-15.19610392
-14.68068359
-14.48293151
-14.42313019
-14.22536724
-13.54573875
-12.01319076
-9.277953861
-5.061155802
0.801206891
8.326180413
17.36846728
27.62450725
38.65635011
49.93306383
60.88496592
70.96394005
79.70183631
86.75876372
91.95417685
95.27605478
96.86692547
96.98946316
95.97810025
94.1856835
91.93495833
89.48327329
87.00559763
84.59651605
82.2874406
80.07202871
77.93156871
75.85315248
73.83640677
71.88849412
70.01088512
68.18398807
66.35638789
64.44402111
62.34152029
59.94411643
57.1750292
54.01121387
50.50026048
46.76316215
42.98103164
39.36772143
36.13367878
33.44842852
31.4094004
30.02342902
29.2045505
28.78833599
28.55966278
28.28822437
27.76476373
26.83124876
25.39990247
23.45869875
21.06394493
18.323152
15.37295865
12.35714769
9.408851013
6.639255773
4.133042437
1.948979993
0.123047304
-1.32859813
-2.408571046
-3.139392718
-3.565552783
-3.754279597
-3.792755154
-3.78041541
-3.816540384
-3.985056909
-4.339794932
-4.893909307
-5.616591548
-6.438646148
-7.266390426
-8.001243579
-8.560890676
-8.897443164
-9.008671257
-8.939953083
-8.776647859
-8.628642062
-8.610370192
-8.820360121
-9.324196678
-10.14385803
-11.25494789
-12.59178083
-14.05890007
-15.54664133
-16.94791377
-18.17345375
-19.16333057
-19.89330116
-20.37555808
-20.65433324
-20.79756628
-20.88630731
-21.00363988
-21.22468906
-21.60880013
-22.19437308
-22.99629504
-24.00559574
-25.19094161
-26.50181788
-27.87351974
-29.23413799
-30.5134187
-31.65272236
-32.61451756
-33.38925878
-33.99746305
-34.48552291
-34.91523557
-35.34885869
-35.83315591
-36.38674179
-36.99462983
-37.61217843
-38.1780361
-38.63297855
-38.93956995
-39.09703021
-39.14678753
-39.16666816
-39.25482371
-39.50739572
-39.99570201
-40.74885739
-41.74616578
-42.92080302
-44.17306186
-45.38867701
-46.4562679
-47.27818127
-47.77098995
-47.85514971
-47.43699788
-46.38937641
-44.53872239
-41.66586963
-37.52495937
-31.88031196
-24.55595762
-15.48814594
-4.768843065
7.331197911
20.36767439
33.75840563
46.84496249
58.96997973
69.55634067
78.17402603
84.58318761
88.74715271
90.81523525
91.08092452
89.92500795
87.75477801
84.9496464
81.8207732
78.58859017
75.37830583
72.23040773
69.12130299
65.98868802
62.75683977
59.35837854
55.75065486
51.92626469
47.91795964
43.79833814
39.67442803
35.67704973
31.94512331
28.60605566
25.75482844
23.43584242
21.63222792
20.26662284
19.21520329
18.33344998
17.48865181
16.59159514
15.61921512
14.62163402
13.71070999
13.03201612
12.72670193
12.89262397
13.55458738
14.65135667
16.04285912
17.53585983
18.92170149
20.01670888
20.69533954
20.90824348
20.68149928
20.09829635
19.26886074
18.29724404
17.25397345
16.16146649
14.9952331
13.69939282
12.21120801
10.48717902
8.523232042
6.36351244
4.095622688
1.833862092
-0.304854443
-2.225971737
-3.876733687
-5.255307274
-6.407609992
-7.413033849
-8.362978739
-9.337697009
-10.38706561
-11.51961088
-12.70184499
-13.86737502
-14.93297896
-15.81742994
-16.45856098
-16.82488148
-16.9197054
-16.77777176
-16.45619975
-16.02284014
-15.54534569
-15.08354382
-14.68623047
-14.39183271
-14.23108505
-14.22935495
-14.40666905
-14.77466234
-15.33118635
-16.05464487
-16.90077273
-17.8042247
-18.68601094
-19.46589013
-20.07696803
-20.47864997
-20.66422956
-20.66079258
-20.52133085
-20.31124281
-20.09297665
-19.91294998
-19.79399648
-19.73481148
-19.71581759
-19.70918513
-19.68986097
-19.6445315
-19.57633327
-19.50449623
-19.45953763
-19.4757314
-19.58309531
-19.80099285
-20.13475963
-20.57579888
-21.10465687
-21.69594732
-22.32377859
-22.96652288
-23.61018992
-24.25010962
-24.89093084
-25.54507567
-26.22983831
-26.96340306
-27.76023875
-28.6265758
-29.55687948
-30.53227097
-31.52161838
-32.48550113
-33.38252714
-34.17674603
-34.84440535
-35.37826214
-35.78817701
-36.0976775
-36.33729989
-36.53644588
-36.71592244
-36.88313807
-37.03118769
-37.14202409
-37.19290284
-37.1645579
-37.04923449
-36.85675177
-36.61710078
-36.37863152
-36.20162073
-36.14791098
-36.26827375
-36.58997315
-37.10742447
-37.77861214
-38.52895214
-39.26267418
-39.87991029
-40.29601948
-40.45876757
-40.35916019
-40.03302809
-39.55258614
-39.00960028
-38.49390058
-38.07225284
-37.77270108
-37.57833528
-37.43224868
-37.2527463
-36.95533367
-36.47629605
-35.79219229
-34.93043096
-33.96805239
-33.01846279
-32.2085883
-31.65116487
-31.41817779
-31.52151628
-31.90564561
-32.45470845
-33.0133865
-33.41773565
-33.52978389
-33.26856608
-32.63076667
-31.69615195
-30.61603756
-29.58648985
-28.81109833
-28.4603789
-28.63575302
-29.34540944
-30.49726322
-31.91102565
-33.34765851
-34.55092736
-35.2931322
-35.41599583
-34.85846274
-33.66572829
-31.97766559
-29.99909799
-27.95811171
-26.06098134
-24.45278752
-23.19137607
-22.23930618
-21.47456311
-20.71693175
-19.76386795
-18.42807236
-16.56903376
-14.11246428
-11.05439104
-7.45010098
-3.391472859
1.021215943
5.70573095
10.61580233
15.74591364
21.1216705
26.77816087
32.73187675
38.95359906
45.34968914
51.75744309
57.95694091
63.69789777
68.73632578
72.87325877
75.98706044
78.05216474
79.14017793
79.4033186
79.04415398
78.27852576
77.29976654
76.25157534
75.2145298
74.20783773
73.20442118
72.15457508
71.01182517
69.75450793
68.39797955
66.99488854
65.62401715
64.37106368
63.30669312
62.46774327
61.84652054
61.39094286
61.01549646
60.62030757
60.11373856
59.43319984
58.5594165
57.52099635
56.38839112
55.25868648
54.23458022
53.40202221
52.81111326
52.46402936
52.31218804
52.26297786
52.19455276
51.97581469
51.48797827
50.64405648
49.40311578
47.77705659
45.82882437
43.66223063
41.40485524
39.18668028
37.11798215
35.27036424
33.66446925
32.26682227
30.99656766
29.74091471
28.37634615
26.79150368
24.90742171
22.69147364
20.16282052
17.3889423
14.47457561
11.54572199
8.732082161
6.151209551
3.896904755
2.033094618
0.59297736
-0.418057097
-1.017968287
-1.244304128
-1.152595364
-0.817012997
-0.331911902
0.188172788
0.612655104
0.804780299
0.637068556
0.010032134
-1.129773505
-2.776908283
-4.863242328
-7.265107956
-9.820734147
-12.35472208
-14.70451291
-16.7432752
-18.39455652
-19.63614112
-20.49324008
-21.02366971
-21.29937757
-21.38913515
-21.34636861
-21.20424631
-20.97786394
-20.67135379
-20.28658493
-19.83011648
-19.31613008
-18.7647529
-18.19685991
-17.62755187
-17.06075813
-16.48686159
-15.88418465
-15.22399932
-14.47777196
-13.62484537
-12.65876492
-11.59089492
-10.45066487
-9.282527015
-8.140326146
-7.080180854
-6.153113274
-5.398552816
-4.839533799
-4.480004669
-4.30429029
-4.27850624
-4.353659444
-4.47023734
-4.564171251
-4.57402595
-4.44903216
-4.15715281
-3.691881221
-3.076126212
-2.361588592
-1.622642403
-0.944883734
-0.409942223
-0.079426962
0.018454986
-0.103704689
-0.393287214
-0.766985016
-1.127080317
-1.381273174
-1.461639947
-1.338333525
-1.024771944
-0.573039314
-0.060549915
0.428872506
0.824991074
1.087456156
1.214567873
1.242570255
1.235943328
1.271386721
1.419639842
1.729601187
2.218384353
2.869283457
3.637593472
4.462344879
5.280694254
6.041250962
6.713104469
7.28859441
7.779567363
8.208524041
8.597268971
8.956181058
9.276953847
9.530691909
9.671822543
9.646745381
9.404913511
8.909472302
8.144835284
7.119546892
5.864141055
4.425021266
2.856276699
1.211588942
-0.462026572
-2.127756685
-3.759885919
-5.34287319
-6.869709519
-8.340425888
-9.761037526
-11.14257104
-12.4994356
-13.84646187
-15.19443415
-16.54468229
-17.88397946
-19.181335
-20.38813391
-21.44247282
-22.2776225
-22.83351958
-23.06928462
-22.9741932
-22.57446821
-21.93380358
-21.14663249
-20.32462401
-19.57842181
-18.99788035
-18.63470951
-18.49131749
-18.51869574
-18.62452862
-18.69061568
-18.59659373
-18.24533619
-17.5847274
-16.62100582
-15.4205021
-14.09903076
-12.80087262
-11.67157676
-10.83016844
-10.34645456
-10.22796784
-10.41900028
-10.81166749
-11.26658546
-11.6389883
-11.80524439
-11.68482307
-11.25375361
-10.5473029
-9.651675469
-8.686625018
-7.782545666
-7.056534839
-6.591900462
-6.424662324
-6.539020057
-6.871909824
-7.325061727
-7.781752277
-8.1249378
-8.253689033
-8.095674708
-7.61458223
-6.812489579
-5.728026587
-4.431509228
-3.018082947
-1.599434308
-0.294125584
0.783600735
1.536416077
1.897034269
1.840106089
1.39043529
0.624993114
-0.333065359
-1.328699199
-2.196010592
-2.782642458
-2.973086871
-2.706409725
-1.984966996
-0.872570403
0.517270986
2.040524358
3.545541674
4.895716101
5.988343977
6.76707845
7.226497921
7.408472608
7.391116428
7.272131043
7.149227434
7.100913486
7.171075826
7.360307655
7.625821343
7.890194783
8.057446458
8.033399932
7.746340664
7.163827852
6.302259742
5.227246201
4.044675381
2.884144385
1.877777735
1.138157131
0.739095665
0.702426302
0.993023823
1.523107511
2.165580376
2.774808929
3.211920071
3.370558221
3.198372878
2.709604582
1.985249581
1.159445727
0.393645555
-0.156799193
-0.376656583
-0.21757723
0.289181906
1.03788652
1.870895559
2.613855044
3.115325503
3.281311936
3.09630276
2.625783122
1.999861482
1.382350106
0.933101264
0.772751655
0.958024508
1.47277723
2.235927666
3.123314797
3.997447309
4.737653108
5.263597715
5.547244872
5.611463272
5.516809893
5.3407214
5.15480393
5.005861923
4.904885934
4.82590933
4.714112313
4.500453092
4.118908506
3.522295769
2.693513317
1.65053249
0.445110852
-0.843488728
-2.117820377
-3.272717439
-4.20559193
-4.826066882
-5.065033429
-4.883305277
-4.279520327
-3.296030162
-2.020700159
-0.582358348
0.861574307
2.145002963
3.118117883
3.672838399
3.763065
3.414386225
2.719789193
1.821067245
0.879245416
0.040446814
-0.59476563
-0.991018796
-1.181754248
-1.255913461
-1.331167199
-1.520749672
-1.902689371
-2.499603871
-3.274371167
-4.142649546
-4.998570301
-5.74626806
-6.328280944
-6.742716733
-7.044199385
-7.328106539
-7.702237751
-8.253557538
-9.01910559
-9.969190134
-11.00785225
-11.99113407
-12.75905099
-13.17353583
-13.15291631
-12.69416487
-11.87709583
-10.84917333
-9.794493479
-8.894524878
-8.290251038
-8.054893861
-8.18353541
-8.601472529
-9.188257392
-9.810432041
-10.35402902
-10.74847087
-10.97630898
-11.06740356
-11.08043591
-11.07789709
-11.10213212
-11.15938117
-11.21631917
-11.21003078
-11.06859142
-10.73641286
-10.19702628
-9.486422119
-8.692380655
-7.938877951
-7.358735122
-7.061123928
-7.102373012
-7.468137075
-8.072371564
-8.774304059
-9.409816843
-9.829665864
-9.93490121
-9.700353032
-9.180025763
-8.492919904
-7.792899438
-7.230336628
-6.915265771
-6.891143868
-7.125287744
-7.51754815
-7.924090668
-8.189559087
-8.179284152
-7.803846937
-7.030872431
-5.882610633
-4.421628082
-2.729789084
-0.886945602
1.044860343
3.028051889
5.04640077
7.094411591
9.163462244
11.22953856
13.24654659
15.14726713
16.85167384
18.28026077
19.3687541
20.08036784
20.41255621
20.39672874
20.09120094
19.56928617
18.90549968
18.1631085
17.38570413
16.59428538
15.78986652
14.96028777
14.08906473
13.16395702
12.18340986
11.15986893
10.11985483
9.10134064
8.149286782
7.310190442
6.626335396
6.130231771
5.839625314
5.753477329
5.849444136
6.083529328
6.392612973
6.700352041
6.926426752
6.998312056
6.863836201
6.502008677
5.929272957
5.198744032
4.391241416
3.598863442
2.904005902
2.358453557
1.967838639
1.686000259
1.421643714
1.056675675
0.472483273
-0.421869441
-1.666316515
-3.237065199
-5.047581215
-6.962967704
-8.824174134
-10.47629626
-11.79464846
-12.70333575
-13.18330654
-13.26962457
-13.04017963
-12.59961634
-12.0625616
-11.53934226
-11.12575226
-10.89671811
-10.90255215
-11.16623752
-11.68083377
-12.40726611
-13.27391341
-14.1800046
-15.00451989
-15.62103505
-15.91705135
-15.81441185
-15.28612072
-14.36484126
-13.13978955
-11.74142418
-10.31656192
-8.999362282
-7.885094186
-7.013161632
-6.363537932
-5.867171631
-5.42714243
-4.944512706
-4.34179904
-3.57806169
-2.652393513
-1.596163282
-0.457586844
0.715918739
1.892090892
3.061018218
4.233959462
5.435287554
6.690991413
8.017795274
9.4162442
10.86944526
12.34717761
13.81343347
15.23458489
16.58546191
17.85154802
19.02689799
20.10880679
21.09129545
21.95986076
22.68959016
23.24778906
23.60097102
23.72475837
23.614258
23.29206166
22.81129612
22.25210294
21.71139555
21.28741972
21.06213068
21.0852767
21.3640281
21.86091496
22.50093659
23.18645593
23.81651063
24.3060262
24.60044864
24.68254193
24.57020363
24.30655989
23.94562217
23.53782311
23.11948241
22.70877283
22.30853954
21.91410338
21.52267849
21.14072997
20.78653321
20.48699383
20.26979942
20.15353032
20.13899211
20.20462117
20.3075788
20.39053531
20.39264601
20.26221202
19.96818411
19.50799539
18.91004751
18.23029367
17.54351427
16.93085482
16.4658402
16.20131328
16.15954568
16.32717912
16.65579262
17.06793445
17.46760324
17.75355488
17.83351011
17.63731824
17.12732269
16.30449661
15.2093264
13.91692947
12.52654722
11.14638593
9.875727124
8.787116031
7.911987548
7.23300996
6.685523824
6.168743569
5.565174102
4.764529172
3.686985352
2.300406882
0.627431325
-1.259245498
-3.252072614
-5.230392324
-7.083285799
-8.728111962
-10.12086012
-11.25691406
-12.16346236
-12.88679823
-13.47860313
-13.98488259
-14.43981417
-14.8649357
-15.27245196
-15.67041623
-16.06733916
-16.47433714
-16.90401991
-17.36658779
-17.86467399
-18.38899264
-18.91666653
-19.41327698
-19.83848824
-20.15394696
-20.33140063
-20.35883133
-20.24288708
-20.00687373
-19.68478762
-19.31300184
-18.92194595
-18.53020383
-18.14282071
-17.75439317
-17.35603455
-16.9439937
-16.52697856
-16.12938894
-15.78874505
-15.54736715
-15.44031655
-15.48312808
-15.66339818
-15.93955446
-16.24822349
-16.51903093
-16.69317672
-16.74052555
-16.66981484
-16.52807154
-16.38813131
-16.32655195
-16.3972722
-16.60818242
-16.90772799
-17.18661534
-17.2960408
-17.07949783
-16.41128464
-15.23244766
-13.57481882
-11.56620484
-9.414145859
-7.370886086
-5.686921759
-4.563459977
-4.11455059
-4.347425354
-5.165264792
-6.391315697
-7.808346744
-9.204084028
-10.41229214
-11.34069622
-11.98047026
-12.39657536
-12.70266368
-13.02753064
-13.48151759
-14.13064406
-14.98386767
-15.99538878
-17.08019189
-18.13791833
-19.0784033
-19.84218615
-20.41099506
-20.80614267
-21.07612007
-21.27749481
-21.45473805
-21.62448849
-21.76817589
-21.83445473
-21.7502965
-21.43755187
-20.83076993
-19.89218595
-18.62088871
-17.05485048
-15.26622982
-13.35166586
-11.4198832
-9.578796541
-7.923669903
-6.527120379
-5.431240977
-4.642072896
-4.1270445
-3.816506407
-3.610691415
-3.392950224
-3.048853917
-2.488949517
-1.671139871
-0.61750557
0.579523751
1.765146052
2.744908832
3.319225407
3.323472672
2.665413604
1.351508297
-0.504462602
-2.693487942
-4.942708351
-6.960372471
-8.485539159
-9.332530984
-9.421195431
-8.787030929
-7.569466529
-5.981085467
-4.264396251
-2.645128221
-1.291531981
-0.287733873
0.373874168
0.780313318
1.069132543
1.38986964
1.864819034
2.558142614
3.460387913
4.491839231
5.52361834
6.411137541
7.031475298
7.315301599
7.265406235
6.957328307
6.522159979
6.116113584
5.884723544
5.930745492
6.293606071
6.944989109
7.800734455
8.744926094
9.659082181
10.44855216
11.05971874
11.48481132
11.75496158
11.92534467
12.05791299
12.20698639
12.41110498
12.69187716
13.05805726
13.51159747
14.05233437
14.67916088
15.38743356
16.16420717
16.9839881
17.80767802
18.58628279
19.26920969
19.81520882
20.20285017
20.43726042
20.55071549
20.59630846
20.63579289
20.72431364
20.89567119
21.15180559
21.45932555
21.75432527
21.95476134
21.97774256
21.75769541
21.26092073
20.49278002
19.49556551
18.33759482
17.09653785
15.8416729
14.62010757
13.45081146
12.32789935
11.23168849
10.14354147
9.059221234
7.99589763
6.990000383
6.08620779
5.321004546
4.70636943
4.219484355
3.802688388
3.374705946
2.850464848
2.163801531
1.286052346
0.234452663
-0.932788054
-2.133756305
-3.287472344
-4.338333235
-5.272531544
-6.120864722
-6.946495415
-7.821013899
-8.796072367
-9.879605874
-11.02457516
-12.13450013
-13.08488783
-13.75461619
-14.0580525
-13.96826832
-13.52434225
-12.82059394
-11.98111136
-11.12735327
-10.34854512
-9.683482905
-9.118641519
-8.602384113
-8.070191894
-7.472644717
-6.797272734
-6.077459854
-5.385623639
-4.81269222
-4.440040017
-4.312344343
-4.419645751
-4.694317693
-5.024441187
-5.280446355
-5.348117163
-5.159178037
-4.711185803
-4.07119864
-3.361951392
-2.733887251
-2.33012223
-2.253237359
-2.542228142
-3.165183357
-4.029099336
-5.003798376
-5.953386593
-6.766967039
-7.380830258
-7.78688845
-8.025973001
-8.168719956
-8.290026439
-8.444621897
-8.650766729
-8.886627207
-9.100161459
-9.229420617
-9.227126749
-9.082090768
-8.830838454
-8.555489519
-8.367741357
-8.3827056
-8.689272634
-9.324831842
-10.26121171
-11.40584575
-12.61816887
-13.73720596
-14.61338019
-15.13658989
-15.25384928
-14.9728566
-14.35179656
-13.47931798
-12.45090272
-11.34816917
-10.22606909
-9.110059782
-8.002137567
-6.89210759
-5.769361216
-4.630973879
-3.483826378
-2.340968871
-1.214683057
-0.109873993
0.978845092
2.064584598
3.16061733
4.270466617
5.379523167
6.451921982
7.434885103
8.270317985
8.910935384
9.336429182
9.564780883
9.654931527
9.69932296
9.807605134
10.08521469
10.61186806
11.42494307
12.5113557
13.80934685
15.21923459
16.62028999
17.88989541
18.92118579
19.63630037
19.9937977
19.99023002
19.65692099
19.05343556
18.25913179
17.36380402
16.45808281
15.62415745
14.92753982
14.41081996
14.09042178
13.95705795
13.97988632
14.11347653
14.30594032
14.50628512
14.66937844
14.75777774
14.74080361
14.59223391
14.28852323
13.80929836
13.14104391
12.28359625
11.2577046
10.11095318
8.919151601
7.781064878
6.805967292
6.09557832
5.723897227
5.719676855
6.056303373
6.652531692
7.385113617
8.111437564
8.697645038
9.046031281
9.115361867
8.929153618
8.56967973
8.158828937
7.830147793
7.698600554
7.835187522
8.25236179
8.903451373
9.695738882
10.51343092
11.24439399
11.80387297
12.14958763
12.28524431
12.25281231
12.11692741
11.94663228
11.79984789
11.71451978
11.70784311
11.78221558
11.93450684
12.1645077
12.4791907
12.89132348
13.41329635
14.04892104
14.78677065
15.59809818
16.44070026
17.26788398
18.03973034
18.7328258
19.34493524
19.89266272
20.40251168
20.89813922
21.38816401
21.85901488
22.27583959
22.59182697
22.76329278
22.76558041
22.60409829
22.31602223
21.9610457
21.60318673
21.28887152
21.02821107
20.78592007
20.48572029
20.02802729
19.31643311
18.28531289
16.91988867
15.26175329
13.39684859
11.42810211
9.439802631
7.463826419
5.458020367
3.304246613
0.82851489
-2.160342933
-5.822213079
-10.23920075
-15.38274602
-21.10283368
-27.14237619
-33.17369741
-38.84879803
-43.85210391
-47.94437884
-50.98927691
-52.95871725
-53.91853276
-54.00027486
-53.36758428
-52.18568855
-50.60054467
-48.73064963
-46.67063793
-44.50253814
-42.30877474
-40.18105131
-38.22100945
-36.53145673
-35.20014402
-34.28063704
-33.77605505
-33.63101213
-33.73513629
-33.93861474
-34.07711938
-34.00101836
-33.60258519
-32.83523585
-31.72053945
-30.34143071
-28.82308959
-27.30567523
-25.91490545
-24.73693319
-23.80294664
-23.08661316
-22.51443678
-21.98605355
-21.39922321
-20.67337106
-19.76621926
-18.68011613
-17.45753379
-16.16804055
-14.89105417
-13.69930007
-12.64703232
-11.76510481
-11.06262056
-10.53292353
-10.1607144
-9.927292986
-9.81217645
-9.791119123
-9.832221743
-9.892787196
-9.91952908
-9.853686266
-9.64087967
-9.243714628
-8.65378148
-7.899309208
-7.045471734
-6.186066328
-5.427501408
-4.86811972
-4.577266923
-4.578834291
-4.843187574
-5.289646488
-5.799406407
-6.236501927
-6.472604241
-6.410520093
-6.001438985
-5.252256516
-4.22145285
-3.004578434
-1.712796042
-0.449538816
0.709270565
1.726952774
2.607328474
3.385700868
4.112310731
4.832848844
5.571299577
6.319754406
7.038016569
7.66325719
8.127321501
8.377202905
8.393244415
8.200053498
7.866844393
7.496537003
7.205789913
7.100491236
7.252452389
7.682818504
8.356096662
9.186158551
10.0527798
10.82494085
11.38577386
11.65395096
11.59739905
11.23713795
10.6412352
9.910801991
9.161216632
8.502196784
8.020027299
7.764430093
7.741531241
7.913391144
8.203758208
8.509106883
8.713577021
8.706089597
8.397656558
7.736746405
6.720547351
5.40014325
3.878071896
2.297567459
0.824035138
-0.379143245
-1.176818392
-1.485527334
-1.289206005
-0.643158168
0.335552244
1.49015483
2.654495077
3.685166006
4.488197908
5.034103253
5.357788286
5.543550044
5.699095612
5.925243969
6.288956616
6.806319978
7.439352546
8.106797204
8.705416247
9.135734837
9.325358284
9.244085229
8.907662304
8.370351189
7.709498022
7.007130868
6.333797155
5.738477302
5.246058852
4.861378692
4.577046483
4.381647825
4.265540029
4.222918099
4.250506936
4.344489727
4.49771151
4.698758824
4.933493255
5.188465777
5.454804669
5.7309284
6.022818871
6.341412173
6.697615534
7.096236877
7.530514345
7.978892211
8.405258374
8.763149921
9.003572253
9.085191331
8.984899432
8.706311424
8.283810775
7.780442103
7.279188314
6.868732557
6.626299179
6.601168544
6.802639772
7.195447856
7.704051669
8.225156284
8.645836431
8.863240011
8.801493684
8.42224826
7.727071903
6.752087983
5.557178957
4.213152425
2.790220115
1.350107566
-0.057451038
-1.394588868
-2.633277096
-3.753294005
-4.741537734
-5.593027607
-6.312917592
-6.918183675
-7.437550211
-7.908673178
-8.372415541
-8.864973155
-9.409389237
-10.00843395
-10.64079772
-11.26201571
-11.8105804
-12.2185017
-12.42442695
-12.38664928
-12.09315493
-11.56637394
-10.86139017
-10.05775988
-9.246430257
-8.514225832
-7.928790014
-7.526692571
-7.306741223
-7.229549357
-7.223322929
-7.194830895
-7.043763139
-6.678250845
-6.029263282
-5.061881704
-3.782004367
-2.237725394
-0.515310692
1.269736445
2.985598223
4.499808688
5.696144396
6.490961988
6.846981432
6.782403466
6.373376399
5.748320596
5.073559984
4.531075937
4.290826858
4.481662855
5.166004841
6.323727138
7.84975671
9.567693794
11.25853719
12.70001216
13.70896321
14.17772131
14.09594028
13.55223781
12.71453277
11.79312483
10.99491833
10.47950443
10.32738686
10.5275484
10.98663549
11.55661422
12.073264
12.39548399
12.43566666
12.1742005
11.65568988
10.96946159
10.22098058
9.502805709
8.873169159
8.347424769
7.903433334
7.49776237
7.086632171
6.644632305
6.175473902
5.711890346
5.305286167
5.008798894
4.859231219
4.863406598
4.992984374
5.189176571
5.375946477
5.477968276
5.438494843
5.232547056
4.872325764
4.403960068
3.896990772
3.42972868
3.074404907
2.885714442
2.895106345
3.11137898
3.526300848
4.122605574
4.881198921
5.78493376
6.817716595
7.959564768
9.179909611
10.4323326
11.6536701
12.76906234
13.70248807
14.39031104
14.79408039
14.90875664
14.76375174
14.41630288
13.93904918
13.40546061
12.87736396
12.39799421
11.9920203
11.67152834
11.44486145
11.32427301
11.32889969
11.4814156
11.79922635
12.28330817
12.90898669
13.62264018
14.34657781
14.99174167
15.4752674
15.73817403
15.75813697
15.55356133
15.17764726
14.70405491
14.20821734
13.74954419
13.3593422
13.0374042
12.7575103
12.4794224
12.16317816
11.78112595
11.32423861
10.80136976
10.23252245
9.639077341
9.034688222
8.42002199
7.782968094
7.10395635
6.364284942
5.554423143
4.679371479
3.759239906
2.824844952
1.909767639
1.041413914
0.23383864
-0.51559245
-1.224938123
-1.922511185
-2.639631195
-3.403598405
-4.232895463
-5.135716635
-6.111730533
-7.155905119
-8.262611909
-9.428259234
-10.65133886
-11.92977267
-13.2564869
-14.61490123
-15.97627053
-17.30046713
-18.54090326
-19.65307816
-20.60500714
-21.38690879
-22.01729748
-22.54321039
-23.03362495
-23.56688611
-24.21467937
-25.02624056
-26.01670921
-27.16268989
-28.40637321
-29.66742208
-30.85983053
-31.90966612
-32.76938577
-33.42533755
-33.8968812
-34.2277786
-34.47250926
-34.68138552
-34.88842741
-35.10490528
-35.31963166
-35.50508518
-35.62691291
-35.65373481
-35.56458868
-35.35257099
-35.02474533
-34.5996262
-34.104064
-33.57101565
-33.03868072
-32.55026884
-32.15278829
-31.89314095
-31.81062559
-31.92646546
-32.23264733
-32.68351716
-33.19367906
-33.64459672
-33.90015179
-33.8288904
-33.32856763
-32.34756082
-30.89811133
-29.05807126
-26.9603875
-24.77225755
-22.66807458
-20.80147057
-19.28176522
-18.15901391
-17.41993761
-16.99478352
-16.7731109
-16.62502931
-16.42376407
-16.06560723
-15.4841739
-14.65715711
-13.60516055
-12.38344825
-11.06843982
-9.741459413
-8.47261666
-7.307733837
-6.260858712
-5.314033942
-4.424643666
-3.539011062
-2.609336527
-1.609986134
-0.548944703
0.528881168
1.547992813
2.417351307
3.050896587
3.388644554
3.413060378
3.15640622
2.696956274
2.144776132
1.620388635
1.231347372
1.052050913
1.111034821
1.387888352
1.819546872
2.313725263
2.766180661
3.078448028
3.173415155
3.007095928
2.575743463
1.917794611
1.110177536
0.258621138
-0.517823513
-1.106639759
-1.423066308
-1.428247082
-1.139368243
-0.627813915
-0.003927036
0.609403292
1.108420941
1.437069965
1.603878729
1.681100073
1.784783801
2.040109635
2.541127836
3.316446063
4.311467751
5.393637473
6.380878845
7.086785994
7.371065073
7.181710803
6.577071542
5.720888929
4.850279235
4.223634123
4.060743069
4.489730714
5.514090468
7.008490869
8.745223092
10.4457582
11.84566819
12.75767879
13.11779992
13.00338565
12.61872084
12.25165035
12.21181524
12.76538416
14.08163296
16.20325655
19.04589664
22.42481899
26.100031
29.82714676
33.40095577
36.68185513
39.60097732
42.14621679
44.33652245
46.19432737
47.72527984
48.91100625
49.71577517
50.10327613
50.05669998
49.59470588
48.77766956
47.70207293
46.48479473
45.24211479
44.06952444
43.02766968
42.1373766
41.38366558
40.72604415
40.1110209
39.48302068
38.79142322
37.99356412
37.05535035
35.95194592
34.67049388
33.21528734
31.61385413
29.92094004
28.21709303
26.59975021
25.16711252
23.99785545
23.13184644
22.55765392
22.21135315
21.98822301
21.76523463
21.42892048
20.90136267
20.15728601
19.22755963
18.1881352
17.13749094
16.16883357
15.34472388
14.68104189
14.14453005
13.66433307
13.15408244
12.53822391
11.77520156
10.87103346
9.879448819
8.888380805
7.996262022
7.28429695
6.79198011
6.502316607
6.340716666
6.188056058
5.904848877
5.360783901
4.462683483
3.174482116
1.524856607
-0.398928523
-2.469338569
-4.544956911
-6.499446296
-8.247399607
-9.762287551
-11.0833477
-12.31026505
-13.58654531
-15.07432588
-16.92478628
-19.24909838
-22.09482947
-25.43183165
-29.15004423
-33.06959495
-36.96150515
-40.57558832
-43.67110037
-46.04551488
-47.55743062
-48.14087033
-47.80978752
-46.65312961
-44.82203338
-42.51148836
-39.93904938
-37.32298754
-34.86181587
-32.71664837
-30.99754851
-29.75495865
-28.97733908
-28.59599964
-28.49749416
-28.5427659
-28.59067524
-28.5220644
-28.25967527
-27.77948049
-27.11047273
-26.322467
-25.5044248
-24.73839235
-24.07553653
-23.52042643
-23.02762045
-22.51133003
-21.86541169
-20.98825164
-19.8060455
-18.28880263
-16.45578702
-14.37023849
-12.1260897
-9.831113802
-7.591037758
-5.497763916
-3.622639608
-2.013660836
-0.694425176
0.33708233
1.110426841
1.684206361
2.144650921
2.59879892
3.160933708
3.933178023
4.983587946
6.326847955
7.913015146
9.628419475
11.31008343
12.77163128
13.8355937
14.36517841
14.28851619
13.61013687
12.40750022
10.81396504
8.992679777
7.107731324
5.299077715
3.666359908
2.264102341
1.107795477
0.187683304
-0.51460491
-1.011765353
-1.302996696
-1.374629222
-1.208571167
-0.795557923
-0.14871042
0.687263046
1.634710539
2.590822661
3.443269685
4.090147317
4.459415141
4.52307042
4.302655876
3.864941489
3.309087518
2.748586561
2.292266003
2.028402246
2.014720067
2.275196335
2.802773106
3.565858097
4.516145024
5.595784218
6.74295399
7.895961828
8.996711446
9.994460743
10.85028368
11.5417961
12.06690912
12.44501575
12.71432183
12.92497419
13.12894647
13.36888049
13.66879661
14.02945885
14.43013412
14.83674908
15.21451132
15.5415334
15.81940757
16.07728139
16.3676622
16.75445749
17.29597076
18.02707723
18.94519145
20.00383704
21.11588269
22.16627681
23.03193017
23.60474457
23.81301262
23.63667149
23.11312212
22.33226283
21.4216285
20.52459696
19.77606588
19.28047172
19.09638557
19.23031701
19.64018407
20.2467229
20.94948611
21.64343054
22.23256011
22.63846708
22.80342334
22.68930598
22.27457152
21.55147366
20.52485783
19.21257544
17.64638317
15.87159088
13.94393089
11.92307513
9.863589182
7.805373627
5.766291527
3.739399496
1.696010817
-0.405901402
-2.610109296
-4.950492166
-7.442483553
-10.07969187
-12.83609178
-15.67243719
-18.54434527
-21.40923003
-24.22997327
-26.97462635
-29.61303629
-32.11253189
-34.43524663
-36.53910764
-38.38313204
-39.93591342
-41.18469534
-42.14179012
-42.8455925
-43.35494534
-43.7376665
-44.05598048
-44.35277601
-44.6426201
-44.91024393
-45.11710185
-45.21420974
-45.15752397
-44.92125303
-44.50501507
-43.93256074
-43.24235587
-42.47288245
-41.64726589
-40.76220831
-39.78506164
-38.66054488
-37.32578557
-35.72987264
-33.85265194
-31.71746709
-29.39393982
-26.98932073
-24.62981485
-22.43590418
-20.4974296
-18.85460936
-17.49007795
-16.33457336
-15.28558506
-14.23488148
-13.09826731
-11.83994365
-10.48485008
-9.115213612
-7.851535964
-6.822373832
-6.130382178
-5.823316117
-5.877641564
-6.199319406
-6.641986697
-7.038291556
-7.236725325
-7.134848624
-6.700721764
-5.977386741
-5.069599465
-4.116517528
-3.257518755
-2.599862799
-2.196156196
-2.036811703
-2.058705478
-2.167109424
-2.264755975
-2.280323252
-2.189005491
-2.019981849
-1.848947668
-1.777610331
-1.90529583
-2.299801128
-2.974880824
-3.880191904
-4.906498219
-5.905200233
-6.717753299
-7.208163673
-7.291092616
-6.94927589
-6.236620408
-5.266757097
-4.190140771
-3.165194174
-2.329956898
-1.780072005
-1.556989596
-1.647581327
-1.993690162
-2.508171784
-3.093150628
-3.656579863
-4.12446549
-4.447760475
-4.604388524
-4.597704197
-4.452801917
-4.211623805
-3.927172826
-3.656729606
-3.454044997
-3.361009686
-3.400017378
-3.568757248
-3.839160013
-4.161529337
-4.473621969
-4.712949636
-4.829366191
-4.794559246
-4.605662539
-4.281777108
-3.854312985
-3.354083073
-2.799319634
-2.188765912
-1.502614682
-0.711654482
0.207753138
1.257434571
2.40537136
3.582582512
4.691362222
5.624143274
6.289062288
6.635987202
6.67602228
6.488625497
6.213251248
6.026193506
6.107082579
6.602287583
7.59354872
9.079206116
10.972622
13.11847947
15.32352302
17.39495962
19.17795396
20.5838656
21.60306879
22.2998711
22.79131538
23.21543196
23.69683275
24.31782898
25.10149966
26.00987707
26.95655624
27.82959402
28.51839814
28.93790425
29.04468616
28.84225213
28.37583328
27.71958541
26.96060664
26.18421108
25.46364505
24.85542884
24.39948496
24.12184001
24.03734488
24.1505457
24.45420195
24.92642442
25.52842737
26.20507065
26.88962792
27.51280359
28.01442341
28.35500954
28.52407422
28.54260111
28.45866219
28.33697356
28.2448299
28.23776399
28.34822046
28.57961343
28.90670984
29.28178015
29.64475318
29.93492692
30.10169988
30.1122548
29.95500396
29.63867421
29.18791262
28.63699037
28.02341058
27.38294429
26.74692713
26.1417634
25.58979155
25.11023446
24.7190455
24.42703858
24.23654753
24.13767997
24.10570784
24.10108423
24.07298466
23.96630137
23.73094821
23.33148084
22.75468054
22.01304448
21.14304239
20.19830865
19.23926676
18.32163355
17.4865391
16.75455048
16.12484123
15.57940734
15.09095989
14.63226078
14.18442819
13.74216721
13.31483534
12.92344022
12.594732
12.35418372
12.21968669
12.19726596
12.27928476
12.44480291
12.6612996
12.88700849
13.07355225
13.16912419
13.12280342
12.89046492
12.44212353
11.76964018
10.8928909
9.862153018
8.754870628
7.666149686
6.694030062
5.922270966
5.404471837
5.153389565
5.138198147
5.290455983
5.517289508
5.718465827
5.803179619
5.702765246
5.376998469
4.813657049
4.022881969
3.029016065
1.86268701
0.555044517
-0.86529445
-2.373290507
-3.947859896
-5.572765712
-7.238394706
-8.943775324
-10.69747469
-12.51595858
-14.41869125
-16.42046503
-18.52273659
-20.70660107
-22.93007278
-25.13144085
-27.23882922
-29.18417579
-30.91824408
-32.4225287
-33.71432727
-34.84281048
-35.8762647
-36.88317627
-37.91175063
-38.97321519
-40.03356601
-41.01643354
-41.81699364
-42.3240867
-42.4456675
-42.13190526
-41.39083905
-40.29325186
-38.96586154
-37.57442302
-36.30031197
-35.31520119
-34.75838522
-34.72028484
-35.23404158
-36.27538036
-37.7695166
-39.60305801
-41.63861695
-43.73003447
-45.73649274
-47.53417599
-49.02445911
-50.13788749
-50.8335422
-51.09384384
-50.9154673
-50.29777736
-49.23091793
-47.68618899
-45.61139082
-42.9332275
-39.56761208
-35.43697846
-30.49184918
-24.73241213
-18.22518753
-11.11032777
-3.596726462
4.055369549
11.56173262
18.64660987
25.07406884
30.67222732
35.34599853
39.07663723
41.90934009
43.93266723
45.25499214
45.98325141
46.2080406
45.99702079
45.39629223
44.43748319
43.14723932
41.55574876
39.70178121
37.63311918
35.40277449
33.06260066
30.65655106
28.21580204
25.75733578
23.28655245
20.80330832
18.3097319
15.8175212
13.35238054
10.95389148
8.670315875
6.549292521
4.626682498
2.916536483
1.405053971
0.050489409
-1.210508656
-2.451246116
-3.740451898
-5.127999139
-6.633972165
-8.243454134
-9.908211935
-11.55505295
-13.09931619
-14.46098983
-15.58047876
-16.43112774
-17.02618728
-17.41887371
-17.69536506
-17.96180898
-18.32749659
-18.88708067
-19.70493476
-20.80440195
-22.16382627
-23.72006314
-25.37885303
-27.030249
-28.56641082
-29.898658
-30.97078966
-31.76634
-32.30856724
-32.65339451
-32.87695727
-33.06053628
-33.27616911
-33.57596315
-33.98710471
-34.51301961
-35.13950981
-35.84344213
-36.6010772
-37.39355122
-38.20821839
-39.03612378
-39.86726971
-40.68608377
-41.46934392
-42.18782853
-42.81148863
-43.31650247
-43.69168111
-43.94168344
-44.08541159
-44.14950464
-44.15849792
-44.12438223
-44.03856987
-43.86856216
-43.56016759
-43.04442093
-42.24695005
-41.09688138
-39.53268888
-37.50359804
-34.96688826
-31.88314999
-28.21266984
-23.91620201
-18.96228113
-13.34115705
-7.082954577
-0.275552769
6.92332832
14.28480542
21.52116954
28.31165388
34.33805815
39.32400455
43.07037014
45.4799661
46.56669039
46.44762904
45.32012383
43.42881341
41.02940508
38.35608639
35.59808284
32.88833175
30.30425618
27.87794673
25.61133548
23.49153848
21.5024508
19.63053555
17.86493314
16.19384219
14.60005734
13.05838025
11.53650947
9.999421693
8.41577538
6.764019054
5.035946644
3.236353998
1.378857892
-0.520675592
-2.450775554
-4.408709859
-6.40092315
-8.439285707
-10.53429557
-12.68744954
-14.88539343
-17.0980597
-19.28190488
-21.38786005
-23.37212246
-25.20687744
-26.88778356
-28.43571136
-29.89166837
-31.30570266
-32.72233915
-34.16625634
-35.63209871
-37.08144797
-38.4482529
-39.65189736
-40.61513327
-41.28283099
-41.63721923
-41.7060573
-41.56179452
-41.31181095
-41.08178535
-40.99562764
-41.15593672
-41.62853988
-42.43350905
-43.54346606
-44.88838335
-46.36482777
-47.84694858
-49.19658977
-50.27064953
-50.92500024
-51.01560482
-50.39858444
-48.93162819
-46.47910659
-42.92250541
-38.17641991
-32.20857662
-25.06055355
-16.86451797
-7.85086324
1.657564518
11.2668544
20.54814963
29.08419437
36.51909625
42.60250395
47.2196746
50.40115086
52.30960153
53.20601451
53.40183103
53.20671976
52.88267115
52.61357395
52.4956638
52.54909022
52.74565062
53.04388867
53.42130288
53.8947413
54.52375179
55.39663603
56.60381891
58.2065816
60.21035149
62.55038016
65.09422853
67.66099512
70.05289284
72.09172699
73.65178178
74.68173486
75.21107334
75.34025247
75.21753328
75.00818102
74.86294151
74.89230203
75.15125393
75.63665442
76.29649573
77.04803019
77.80018739
78.47524291
79.02524127
79.44007351
79.74607977
79.99621123
80.25469345
80.58033013
81.01273144
81.5647526
82.22252246
82.9521666
83.71037803
84.45499248
85.15202997
85.77718518
86.31196712
86.73682291
87.02485572
87.13967587
87.03948051
86.68710189
86.06329605
85.17884313
84.08075193
82.84920525
81.58450291
80.38635994
79.33050229
78.4487084
77.7178443
77.06119136
76.36215908
75.4872866
74.31318667
72.75134228
70.76548654
68.37828585
65.66655965
62.7466596
59.75341995
56.81703248
54.04225209
51.49360687
49.18896501
47.10214762
45.17354392
43.32616794
41.48356999
39.585714
37.59947369
35.52172074
33.37480062
31.19607677
29.02468201
26.88924333
24.79994857
22.74698989
20.7055141
18.64528324
16.54187095
14.3858031
12.18671855
9.971181157
7.774756524
5.630778507
3.55930359
1.559725445
-0.390611768
-2.331337736
-4.309040026
-6.365264712
-8.525934599
-10.79498139
-13.15364314
-15.56529681
-17.98435244
-20.36692398
-22.68078643
-24.912448
-27.06985643
-29.18015915
-31.2829029
-33.41995833
-35.62416621
-37.90910274
-40.26233715
-42.64402938
-44.99170074
-47.23064841
-49.28804374
-51.10762134
-52.66140244
-53.95534815
-55.02721631
-55.93691084
-56.7517242
-57.53044506
-58.31080784
-59.10396402
-59.89770384
-60.66756294
-61.39246501
-62.06996404
-62.72601959
-63.4156915
-64.21378824
-65.19755943
-66.42604883
-67.92193399
-69.66118696
-71.57383665
-73.55611958
-75.49127228
-77.27402794
-78.83311017
-80.1467766
-81.2483951
-82.22148179
-83.18588305
-84.27831219
-85.63103184
-87.35219725
-89.51053908
-92.12601558
-95.1670603
-98.55421372
-102.1692569
-105.868432
-109.4979474
-112.9097733
-115.9758139
-118.5988816
-120.7194662
-122.3179477
-123.4125468
-124.0538163
-124.3167966
-124.2920439
-124.0766254
-123.765902
-123.4465877
-123.1912783
-123.0544713
-123.0700892
-123.250645
-123.5883051
-124.058073
-124.6230042
-125.2408272
-125.8707791
-126.4791592
-127.0422949
-127.5463422
-127.9844115
-128.3525166
-128.6463704
-128.8608032
-128.9926
-129.0461434
-129.0399191
-129.0111517
-129.0158763
-129.1226311
-129.3994153
-129.8952148
-130.618825
-131.5185772
-132.4667653
-133.2520979
-133.5825696
-133.099942
-131.4057393
-128.0973062
-122.8110573
-115.2685838
-105.3199622
-92.97779149
-78.43560588
-62.06569916
-44.39409078
-26.05400614
-7.723142681
9.946709693
26.39722695
41.21784143
54.17835523
65.23516368
74.51099471
82.25267618
88.77511958
94.40175707
99.41174061
104.0023563
108.2717508
112.2229205
115.7858439
118.8514509
121.3094317
123.0819136
124.1466392
124.5459837
124.3813097
123.79509
122.9454036
121.978478
121.0048525
120.0836226
119.2174086
118.3585527
117.4249576
116.3222233
114.9675609
113.3105528
111.3463265
109.1181313
106.7084868
104.2206176
101.7542605
99.38152086
97.12879019
94.96960625
92.83088058
90.61165068
88.2102037
85.55293488
82.61739291
79.4430298
76.12610228
72.79929704
69.60087272
66.64119828
63.97554866
61.59051975
59.40781908
57.30449841
55.14427553
52.8117126
50.24048145
47.42885505
44.43930182
41.38347366
38.39764016
35.61563791
33.14617284
31.05908036
29.38180092
28.10407237
27.18675996
26.57044425
26.18079818
25.93022308
25.71764309
25.42978615
24.94713713
24.1560912
22.9662849
21.32957727
19.25560191
16.81880542
14.15352754
11.43655283
8.859870374
6.599155786
4.784903712
3.482739643
2.687306833
2.330833542
2.303920203
2.483166668
2.758702956
3.054850951
3.338980963
3.616714111
3.915251889
4.259922312
4.65116237
5.049463119
5.374042719
5.517461903
5.373850906
4.874046068
4.018010477
2.894455217
1.680002458
0.615136417
-0.039621684
-0.058098438
0.699463152
2.249868707
4.475922748
7.144694904
9.951565951
12.57992175
14.76237771
16.32915677
17.23276293
17.54436557
17.42455558
17.07736469
16.70004097
16.44123535
16.37712698
16.5095988
16.78440929
17.12205871
17.45108965
17.73362332
17.97591232
18.22165919
18.53130181
18.95474995
19.50689172
20.15407956
20.81619703
21.38400714
21.74683463
21.82261761
21.58178923
21.05836171
20.34530367
19.5756684
18.8946727
18.43003941
18.26793541
18.43991738
18.92310486
19.65226923
20.5395905
21.49619974
22.44963404
23.35290772
24.1835909
24.93435362
25.59904207
26.15975561
26.58013251
26.80811566
26.78834015
26.4808532
25.88021461
25.02806923
24.01351402
22.9588279
21.99254549
21.21613968
20.67337109
20.33166845
20.08241587
19.76225821
19.19172764
18.22227752
16.7797498
14.89242473
12.69524709
10.40775865
8.290097788
6.587258104
5.475005462
5.02056196
5.167492683
5.74821617
6.520834975
7.221293422
7.618596735
7.560647117
7.001021332
6.001869364
4.713762091
3.338389937
2.083393929
1.119650418
0.549965773
0.394857464
0.596799474
1.04006082
1.580044947
2.074516422
2.409510554
2.514821559
2.367116069
1.98204525
1.399348376
0.666205647
-0.176226439
-1.099844135
-2.089360236
-3.136351097
-4.230757687
-5.353463598
-6.472847619
-7.546669328
-8.52886025
-9.379312055
-10.07394332
-10.61230932
-11.02070632
-11.34988083
-11.66777296
-12.04886346
-12.56237091
-13.26161085
-14.17632693
-15.30895788
-16.63491964
-18.10631941
-19.65819662
-21.2163575
-22.70598485
-24.06030233
-25.22856156
-26.18250451
-26.9203251
-27.46715835
-27.87141121
-28.19689173
-28.51162883
-28.87527362
-29.32769272
-29.88146953
-30.52033868
-31.20417579
-31.87941314
-32.49219835
-33.00079153
-33.38391946
-33.64303637
-33.7982942
-33.87991801
-33.91802243
-33.93428677
-33.93820912
-33.92909007
-33.90292226
-33.86159351
-33.82081809
-33.81334966
-33.88532897
-34.0857509
-34.45139157
-34.99139599
-35.67646557
-36.43687439
-37.17146454
-37.76681123
-38.12269187
-38.17771492
-37.92819365
-37.43444318
-36.81149303
-36.20510175
-35.75795263
-35.57392316
-35.68947356
-36.06004892
-36.56607214
-37.03834602
-37.29765346
-37.19937893
-36.67220388
-35.74093808
-34.52717435
-33.22680634
-32.06915701
-31.26705094
-30.96944304
-31.22760559
-31.98254671
-33.07616766
-34.28301774
-35.35482739
-36.06743507
-36.25979995
-35.85731177
-34.87576286
-33.40699892
-31.59128525
-29.58395537
-27.52450349
-25.51494356
-23.61139928
-21.82924901
-20.15863832
-18.5846702
-17.10570756
-15.74416354
-14.54661433
-13.57334208
-12.88057558
-12.50084983
-12.42744453
-12.60764662
-12.94699817
-13.32353034
-13.60820957
-13.6862552
-13.47405573
-12.92800998
-12.04417104
-10.8502293
-9.393316088
-7.727815783
-5.906746575
-3.978626701
-1.989672628
0.010664404
1.963890557
3.799491373
5.436926572
6.793120624
7.794184067
8.388651928
8.558805855
8.326844641
7.753743587
6.930346609
5.962161158
4.950995796
3.977543083
3.08896147
2.294394045
1.569421314
0.868176602
0.139875012
-0.654620017
-1.53051359
-2.474165419
-3.446555248
-4.393807749
-5.26153741
-6.008814365
-6.617818694
-7.096638222
-7.474727734
-7.792646992
-8.089210076
-8.389704684
-8.698303572
-8.996443097
-9.247249095
-9.404555664
-9.424082091
-9.274090665
-8.943295982
-8.444707376
-7.815145154
-7.111072997
-6.401916765
-5.762113627
-5.262821103
-4.963697806
-4.904692601
-5.097582194
-5.517228824
-6.093190762
-6.703231023
-7.171102487
-7.271338947
-6.74331069
-5.315372528
-2.737710238
1.18003437
6.532405596
13.29009483
21.28666153
30.22416003
39.69827566
49.23962993
58.36457453
66.62690921
73.66197956
79.2164876
83.16056712
85.48242066
86.26917496
85.67982173
83.91674301
81.20136672
77.75733237
73.8018068
69.54301859
65.18036263
60.90302016
56.88405234
53.26906225
50.16113874
47.60606738
45.58293556
44.00478075
42.73181008
41.59645297
40.43600007
39.12589489
37.60578174
35.89161494
34.07029788
32.27763103
30.66460752
29.36009613
28.43885302
27.90237584
27.67679616
27.6277507
27.58815112
27.39203066
26.90680917
26.05743518
24.83843047
23.31301414
21.60128476
19.86118445
18.26637622
16.98442128
16.157282
15.8848566
16.21151533
17.11569921
18.5034298
20.20759987
21.99553546
23.58697464
24.68304492
25.0042504
24.33256027
22.55034205
19.66798745
15.83317633
11.31780173
6.483027728
1.727715537
-2.570678838
-6.111680569
-8.713299146
-10.33179416
-11.05660596
-11.0825118
-10.66562267
-10.07279466
-9.534815976
-9.212280795
-9.179782131
-9.429724495
-9.892655576
-10.46754759
-11.05372887
-11.57657028
-12.0014137
-12.33388724
-12.60861728
-12.87131352
-13.16046931
-13.49424502
-13.86585425
-14.24778175
-14.60241795
-14.89501677
-15.10466832
-15.2301121
-15.28917846
-15.3127257
-15.33549962
-15.38700063
-15.48514036
-15.63441305
-15.82885937
-16.05866807
-16.31820438
-16.61282729
-16.96216071
-17.39844379
-17.95996923
-18.68108611
-19.58141363
-20.65743664
-21.87930861
-23.19445731
-24.53772318
-25.84575224
-27.07182905
-28.19682455
-29.23273304
-30.21726336
-31.20059661
-32.22792602
-33.32294489
-34.47749737
-35.65105529
-36.78092717
-37.80092847
-38.66359383
-39.35971409
-39.92946475
-40.46154547
-41.07994178
-41.92118925
-43.10738869
-44.72101024
-46.78659036
-49.26220073
-52.04088859
-54.9600643
-57.81568403
-60.37820895
-62.40840049
-63.6724115
-63.95667692
-63.08331828
-60.92603991
-57.42511224
-52.59861782
-46.54639804
-39.44363832
-31.52291435
-23.04639798
-14.27291454
-5.426590131
3.325914564
11.88436951
20.20828222
28.29660602
36.15921512
43.78729488
51.12968192
58.08040152
64.47984732
70.12904615
74.81394967
78.33509842
80.53741374
81.335169
80.72817512
78.80668207
75.74425785
71.77974899
67.19109975
62.26503345
57.2671492
52.41675059
47.86976366
43.71163026
39.96037921
36.57847906
33.49080996
30.60533308
27.83287947
25.10292803
22.37319786
19.63216133
16.89495359
14.19435879
11.56936581
9.054052854
6.669234202
4.418467795
2.288883386
0.256126283
-1.708199796
-3.628663786
-5.519710093
-7.382381459
-9.204651809
-10.96502083
-12.63824208
-14.20162451
-15.64035358
-16.95068551
-18.14052285
-19.22757116
-20.23581123
-21.19128484
-22.11817359
-23.03591355
-23.95773417
-24.8906344
-25.83649644
-26.7938471
-27.75973551
-28.73127721
-29.70656108
-30.68476834
-31.66549022
-32.64736562
-33.62631093
-34.59378498
-35.53569199
-36.4326039
-37.26187479
-38.00182186
-38.63743756
-39.16621188
-39.60189875
-39.97386461
-40.3203321
-40.67541917
-41.05203625
-41.42478342
-41.71821718
-41.8056125
-41.52141081
-40.68722255
-39.14735633
-36.80649748
-33.66046211
-29.81162807
-25.46374104
-20.89560976
-16.41845905
-12.32593077
-8.847700565
-6.116839132
-4.157610077
-2.895304981
-2.184348526
-1.846696397
-1.710588914
-1.640463639
-1.551953092
-1.410423127
-1.216117337
-0.982385055
-0.714812215
-0.398097033
0.005377583
0.545214579
1.264608463
2.180134784
3.26663572
4.452724926
5.629407216
6.670514141
7.460177104
7.92037993
8.031363284
7.839364725
7.449392559
7.004565263
6.656960884
6.536999632
6.728589003
7.255577914
8.082006661
9.125088956
10.27680718
11.42823193
12.49057205
13.40841748
14.16313466
14.76714748
15.25210986
15.65518221
16.00755387
16.32817391
16.62380382
16.89454723
17.14244924
17.37994304
17.63499665
17.95072577
18.37876498
18.96747467
19.74767499
20.71962852
21.84513649
23.04775381
24.22237834
25.25317051
26.03643496
26.50335812
26.63689905
26.47800501
26.11862694
25.68226783
25.29617325
25.06179342
25.03099868
25.19434415
25.48467603
25.79533492
26.00827315
26.02470645
25.79026179
25.3081659
24.63738137
23.87675578
23.13999092
22.52849888
22.10939341
21.90401937
21.88919617
22.00975005
22.19796689
22.39406882
22.56200285
22.69653219
22.82025877
22.97201139
23.19028216
23.49657613
23.88344832
24.31073521
24.71137645
25.0057525
25.12118567
25.01170201
24.67275362
24.14655304
23.51584725
22.88688496
22.36527302
22.03056341
21.91610312
21.99961764
22.20737936
22.43129661
22.55481284
22.48110035
22.15636374
21.58233786
20.81493093
19.94962271
19.0976563
18.35931714
17.80109175
17.44217302
17.25307398
17.16584005
17.09243737
16.94611245
16.66026553
16.20059057
15.56842801
14.79573118
13.93405191
13.04102354
12.16782412
11.35022908
10.60450655
9.928015118
9.303298973
8.703948394
8.100534704
7.465414247
6.775901376
6.01598183
5.17716468
4.259139776
3.270627574
2.230305104
1.167174201
0.119438126
-0.868949372
-1.754345262
-2.501472214
-3.091876851
-3.530519521
-3.848174225
-4.09806385
-4.34658893
-4.659747815
-5.088351127
-5.655876671
-6.3524607
-7.137073969
-7.947743838
-8.717387174
-9.391123472
-9.940401624
-10.37010739
-10.71679833
-11.03874578
-11.40078169
-11.85835633
-12.44530445
-13.1685883
-14.01112836
-14.94140689
-15.92655637
-16.94469327
-17.99258532
-19.08623588
-20.25418465
-21.5256077
-22.91697321
-24.42156069
-26.00539361
-27.61127288
-29.17018465
-30.61712595
-31.90702296
-33.02631339
-33.99692569
-34.87143824
-35.72053226
-36.61583095
-37.61235583
-38.73488706
-39.97151426
-41.27587818
-42.57748138
-43.79751312
-44.86636788
-45.73873732
-46.40285616
-46.88195427
-47.22780328
-47.50800213
-47.78995474
-48.12511988
-48.53697796
-49.01532162
-49.5181239
-49.98064225
-50.32988828
-50.5014227
-50.45485671
-50.18459478
-49.72325514
-49.13671585
-48.51156258
-47.93746088
-47.48822067
-47.20574452
-47.09051572
-47.10088084
-47.1614194
-47.17862811
-47.06048085
-46.73556921
-46.16769442
-45.36291228
-44.36782784
-43.25993241
-42.1324843
-41.07746625
-40.1702989
-39.45925297
-38.96108416
-38.66266738
-38.5267823
-38.49915442
-38.51372494
-38.49400774
-38.35007423
-37.9726781
-37.22764133
-35.95429135
-33.97116738
-31.09049651
-27.14055393
-21.99267275
-15.58805347
-7.959090684
0.759248407
10.33069237
20.43207254
30.67923968
40.66120835
49.97823807
58.27919741
65.29375553
70.85560242
74.91392552
77.5316853
78.87075604
79.16563727
78.6890545
77.71413841
76.47870939
75.15720435
73.84477707
72.55611267
71.23881841
69.79840714
68.12951142
66.14665119
63.80803469
61.12756678
58.17312204
55.05248482
51.89125651
48.80868449
45.89736235
43.21118243
40.76333854
38.53337825
36.48008309
34.55586969
32.71864222
30.93838381
29.19774776
27.48786287
25.8019263
24.12956526
22.4543517
20.75549811
19.01310964
17.21495149
15.36197046
13.47004213
11.56658018
9.68241939
7.841207021
6.049766506
4.293032875
2.536041821
0.733346442
-1.156240536
-3.153727005
-5.247878921
-7.391368773
-9.507319341
-11.50535117
-13.30318804
-14.84782858
-16.12997537
-17.1870249
-18.09305986
-18.93805297
-19.80177773
-20.72973022
-21.71811604
-22.71265846
-23.62224505
-24.34428677
-24.79528195
-24.93841641
-24.80057099
-24.4737126
-24.09961537
-23.84113347
-23.84670708
-24.21654859
-24.97861597
-26.08017083
-27.39706153
-28.75877472
-29.98371767
-30.91691334
-31.46177582
-31.59896335
-31.38817135
-30.95250221
-30.44891693
-30.0313915
-29.81507241
-29.84954841
-30.10731689
-30.49002851
-30.85090933
-31.02787065
-30.87919455
-30.31303799
-29.30356122
-27.88991686
-26.15878475
-24.21546
-22.15156629
-20.01843683
-17.81376001
-15.48552111
-12.95247506
-10.13564958
-6.992051523
-3.54082852
0.126059408
3.852556612
7.445355428
10.71276061
13.50623538
15.75447435
17.48158463
18.804727
19.91138146
21.02106153
22.33971327
24.01646564
26.11164393
28.58234007
31.28806205
34.01492979
36.51336804
38.54189851
39.90881154
40.50427234
40.31757297
39.43730691
38.0355652
36.34011921
34.60036709
33.05325454
31.89447969
31.25844536
31.20823117
31.73493364
32.76449658
34.16977187
35.78587338
37.42757677
38.90815567
40.05926465
40.75108657
40.9110351
40.5382064
39.71006358
38.57805575
37.35031249
36.26208341
35.53764209
35.35008591
35.78696183
36.82932951
38.34962767
40.12997585
41.89819161
43.37487753
44.3223735
44.58578869
44.11788232
42.98292892
41.33914226
39.40375007
37.40839289
35.55436633
33.97694151
32.72568029
31.76387439
30.98587969
30.24721351
29.39973745
28.3236188
26.94913122
25.26430829
23.30821622
21.15319839
18.88195812
16.56616629
14.2522436
11.95742805
9.675984122
7.392425078
5.096780606
2.796736357
0.522856949
-1.674455181
-3.73494059
-5.602006779
-7.235509785
-8.619985417
-9.766134294
-10.705565
-11.48089658
-12.13467632
-12.7007738
-13.20091395
-13.64713573
-14.04882305
-14.42126394
-14.79203344
-15.20211537
-15.70040918
-16.33257134
-17.12728437
-18.08432746
-19.16878308
-20.31428165
-21.43570992
-22.44897114
-23.29301425
-23.94818157
-24.44538252
-24.86265781
-25.30887314
-25.89775118
-26.71827526
-27.80887327
-29.14228066
-30.62565418
-32.11691458
-33.454322
-34.49291557
-35.13950396
-35.37785746
-35.27766173
-34.98425796
-34.69047889
-34.59606849
-34.8632972
-35.57868726
-36.72982832
-38.20317139
-39.80404307
-41.29496576
-42.44396475
-43.07204441
-43.08912455
-42.51045799
-41.45020393
-40.09420139
-38.65870526
-37.34476168
-36.29837218
-35.58464905
-35.18043081
-34.9853473
-34.84725013
-34.59521353
-34.07249453
-33.16291607
-31.80659905
-30.00400087
-27.80993344
-25.32095227
-22.65993973
-19.9610002
-17.35643526
-14.96619101
-12.88928019
-11.19652313
-9.924439919
-9.070921192
-8.593951519
-8.414773621
-8.426296201
-8.506388666
-8.534349718
-8.407771065
-8.056648901
-7.452088614
-6.608162665
-5.577032956
-4.438855535
-3.288839004
-2.223928465
-1.331004312
-0.677530348
-0.304689695
-0.22258842
-0.407251445
-0.799757202
-1.308581361
-1.816574159
-2.193616227
-2.314795332
-2.082174945
-1.446423285
-0.423394326
0.899249161
2.368862685
3.788923463
4.951885992
5.678054436
5.852543584
5.45192792
4.553746758
3.325454354
1.993979549
0.8017159
-0.04169422
-0.40098361
-0.240668198
0.371765414
1.285649657
2.305077467
3.23569781
3.928909091
4.312758574
4.40236743
4.288038953
4.104959585
3.993052806
4.057884255
4.342956236
4.82045471
5.402421019
5.968787778
6.404225551
6.633485372
6.645469129
6.499422268
6.311517538
6.225334329
6.37392561
6.843223295
7.645997311
8.712706687
9.901231196
11.02285756
11.87820935
12.29491328
12.15900396
11.43411736
10.16569205
8.470769947
6.516735962
4.49393546
2.58743319
0.952445609
-0.30339211
-1.129335314
-1.532270051
-1.569875349
-1.337972036
-0.954251189
-0.540716133
-0.207095353
-0.037243581
-0.080156473
-0.346655605
-0.812039836
-1.424099812
-2.1150017
-2.814871498
-3.464641779
-4.025949354
-4.486545403
-4.860625447
-5.184470687
-5.508594736
-5.888057776
-6.372687088
-6.998678623
-7.782590733
-8.718253506
-9.776730308
-10.90920109
-12.05242127
-13.13616553
-14.09177865
-14.86069832
-15.40170559
-15.69577908
-15.74777961
-15.58468523
-15.25062289
-14.79941297
-14.28571365
-13.75609723
-13.24148144
-12.75223561
-12.27695674
-11.78536946
-11.23510257
-10.58134324
-9.787714559
-8.836324443
-7.734919229
-6.519496972
-5.251540674
-4.010071602
-2.879789125
-1.937434583
-1.238998265
-0.810350551
-0.643286076
-0.697904544
-0.910912699
-1.208114732
-1.518395574
-1.786165939
-1.97964589
-2.093423165
-2.145153713
-2.167688236
-2.198932053
-2.272117508
-2.40881847
-2.616093356
-2.887884967
-3.209580184
-3.563772467
-3.935016223
-4.311803099
-4.685020673
-5.043477738
-5.368278828
-5.628490925
-5.78040607
-5.771759484
-5.550775408
-5.078323504
-4.340250827
-3.35646957
-2.183786063
-0.910682514
0.355948444
1.510145193
2.468602616
3.190039726
3.687420983
4.029354801
4.329153551
4.722838778
5.340163958
6.274774706
7.560325624
9.158424448
10.96180022
12.81264161
14.53247004
15.95711418
16.96906699
17.52008562
17.63921824
17.42493625
17.02382278
16.60133395
16.31170992
16.27379775
16.55752532
17.1826759
18.12835697
19.349021
20.79171165
22.40960055
24.16861995
26.04648444
28.02583868
30.08493227
32.18966379
34.2900274
36.32231065
38.21644887
39.90638268
41.34054209
42.48981909
43.35138041
43.94798656
44.32364854
44.53712539
44.65482182
44.74420962
44.86826153
45.08087307
45.42306242
45.91989563
46.57842826
47.38724376
48.31818935
49.33056718
50.37740927
51.4127688
52.39846949
53.30867604
54.13106464
54.86421778
55.51194725
56.07625824
56.5512679
56.92032218
57.15774077
57.23522881
57.13141028
56.84166644
56.38496896
55.80492909
55.16376005
54.52986544
53.96172969
53.49210055
53.11670114
52.7907758
52.43489143
51.94909703
51.23242563
50.20337727
48.81679353
47.07344894
45.02045879
42.74273297
40.34762508
37.94617022
35.63464516
33.47967188
31.5089989
29.70880881
28.02724273
26.38299443
24.67734411
22.80781386
20.68164327
18.22744834
15.40372537
12.20329679
8.653351345
4.811352441
0.757681264
-3.413674728
-7.604897822
-11.72322904
-15.68802804
-19.43559848
-22.92185925
-26.12324313
-29.03627761
-31.67618437
-34.07460486
-36.27631437
-38.33462752
-40.30522657
-42.23843016
-44.17045383
-46.11486348
-48.05595331
-49.94592898
-51.70736641
-53.24144021
-54.4410752
-55.20683703
-55.46246821
-55.16683129
-54.31975839
-52.96076403
-51.16135052
-49.01320426
-46.61548481
-44.06438761
-41.44723741
-38.84183537
-36.32010452
-33.9537511
-31.819061
-29.99823639
-28.57575108
-27.62975378
-27.22014425
-27.37614376
-28.08664428
-29.29621303
-30.90844776
-32.79671316
-34.82054522
-36.84461121
-38.75641225
-40.4791136
-41.97697106
-43.25254711
-44.33685252
-45.27520064
-46.11247956
-46.88148472
-47.59694128
-48.25616433
-48.84540853
-49.34934882
-49.76024765
-50.08347396
-50.33716381
-50.54568469
-50.72866887
-50.8890919
-51.00463432
-51.02605432
-50.88453951
-50.50739302
-49.83865766
-48.85924149
-47.60051132
-46.14651453
-44.62277558
-43.17326381
-41.93059142
-40.9867343
-40.37187648
-40.04721909
-39.91420715
-39.83849575
-39.68318141
-39.34336715
-38.77366889
-38.00194491
-37.12591168
-36.293511
-35.6718171
-35.41190627
-35.6178151
-36.32637455
-37.50175965
-39.044871
-40.81415725
-42.65207012
-44.41054535
-45.96980015
-47.2469718
-48.19402969
-48.78719444
-49.01210915
-48.84979954
-48.26793036
-47.2202248
-45.65460677
-43.528215
-40.82548072
-37.57439863
-33.85621128
-29.80499445
-25.59584538
-21.42306343
-17.47224167
-13.89191408
-10.77085177
-8.126106102
-5.904648732
-3.998468649
-2.269963106
-0.582137882
1.172919418
3.053366852
5.058969186
7.135962872
9.193856558
11.12996314
12.85580262
14.31919822
15.51698624
16.49553608
17.3392143
18.1498287
19.02224866
20.02227332
21.17218331
22.44740894
23.78487642
25.10058659
26.31162523
27.35673452
28.21009453
28.88494358
29.42655457
29.89703953
30.35659425
30.84649503
31.37828249
31.93150866
32.45994269
32.90403513
33.20628085
33.32601938
33.25091303
33.00340401
32.64146981
32.25375672
31.94967697
31.84545286
32.04754778
32.63549985
33.64675081
35.06637409
36.82434281
38.80196044
40.84737235
42.79803923
44.50622077
45.86244302
46.81198752
47.36072956
47.56891497
47.53417247
47.36754189
47.16792866
47.00074082
46.88541998
46.79439851
46.66325666
46.40921669
45.95324804
45.24040639
44.2537069
43.01861393
41.59762212
40.07678103
38.54779801
37.09014721
35.75729234
34.56984762
33.51662681
32.56255469
31.66083466
30.76595184
29.8442023
28.87938438
27.8727714
26.83809432
25.79357607
24.75374707
23.72367453
22.69740301
21.66107144
20.59971186
19.50555536
18.38510229
17.26241918
16.17705651
15.17640389
14.30386041
13.58551394
13.0187582
12.56620628
12.15732407
11.6985419
11.09053634
10.24938311
9.126894913
7.725123281
6.100943463
4.358740662
2.632007305
1.05742717
-0.252990907
-1.235514224
-1.888673314
-2.274445351
-2.506341834
-2.727025459
-3.080322958
-3.683561295
-4.605828616
-5.856189622
-7.383520008
-9.087101708
-10.83506756
-12.48663484
-13.91395346
-15.02014405
-15.75133765
-16.10183187
-16.11253163
-15.86351865
-15.46195124
-15.02669883
-14.67133212
-14.48738981
-14.53016443
-14.80940804
-15.28712224
-15.88377962
-16.49290645
-17.00215091
-17.31720143
-17.38372956
-17.20234989
-16.83261657
-16.38420311
-15.99622912
-15.80857545
-15.93124941
-16.41879356
-17.2560083
-18.35892098
-19.59145951
-20.79449213
-21.82073416
-22.56734387
-22.99834528
-23.15133858
-23.12676512
-23.06233539
-23.09897194
-23.34675773
-23.85931387
-24.62274782
-25.56141429
-26.55827699
-27.48388962
-28.22598351
-28.71191077
-28.91861167
-28.86857792
-28.61429913
-28.21672215
-27.72448975
-27.15991464
-26.51516961
-25.75888397
-24.85025804
-23.75583947
-22.46375181
-20.99140952
-19.3850813
-17.71224892
-16.04969506
-14.47105067
-13.03701355
-11.7899721
-10.7529999
-9.931818828
-9.317801789
-8.890455311
-8.61879294
-8.462094196
-8.371251924
-8.291930542
-8.170071715
-7.959179261
-7.627761955
-7.164770274
-6.581097803
-5.906205103
-5.180352216
-4.444307255
-3.729244995
-3.049553549
-2.400412448
-1.760571031
-1.099217495
-0.384690481
0.40760011
1.290225097
2.262853821
3.31519186
4.43233349
5.60048012
6.811004547
8.061494557
9.353466589
10.68758046
12.05808518
13.44863399
14.83138843
16.17048271
17.429593
18.58187946
19.61940707
20.55877123
21.44033133
22.32012557
23.25577133
24.2897667
25.43488008
26.66623781
27.92318449
29.12136414
30.17250288
31.00697317
31.59315559
31.94825744
32.13743906
32.26119375
32.4340112
32.75954246
33.30820028
34.10226214
35.11143971
36.25920279
37.43765426
38.52708326
39.41582036
40.01666377
40.27758276
40.1860785
39.76794545
39.08188036
38.21139279
37.25502506
36.31539153
35.487369
34.84608387
34.43602666
34.26331402
34.29335335
34.45560866
34.65576214
34.79361763
34.78319701
34.5703453
34.14332429
33.53346262
32.80554803
32.04049364
31.31496259
30.68339335
30.16700111
29.7521391
29.39759616
29.04785958
28.64785939
28.15466364
27.54297396
26.80358096
25.93639758
24.94148514
23.81204141
22.53246701
21.08266666
19.44734641
17.6270548
15.64677766
13.55837458
11.43491983
9.357537536
7.397805311
5.600454057
3.971378642
2.474772251
1.040825672
-0.4174416
-1.982207632
-3.709228364
-5.612103963
-7.656519648
-9.766016037
-11.83788925
-13.76522259
-15.4595034
-16.86820778
-17.98317566
-18.83816633
-19.49696693
-20.03597468
-20.52653843
-21.02210601
-21.55343054
-22.13227517
-22.76110767
-23.44417126
-24.19479945
-25.03514924
-25.98728028
-27.05782666
-28.22128811
-29.40824573
-30.50407849
-31.36114999
-31.82367701
-31.76066828
-31.09953976
-29.85207213
-28.12557272
-26.11517569
-24.07742971
-22.28967266
-21.00313093
-20.39936526
-20.55917229
-21.45041863
-22.93713222
-24.80750046
-26.81436902
-28.71938741
-30.3316655
-31.53365763
-32.29038412
-32.64207397
-32.6838518
-32.53840245
-32.32822837
-32.15320804
-32.07708574
-32.12394093
-32.28331943
-32.52113022
-32.79288028
-33.05622523
-33.28077003
-33.45409193
-33.5837362
-33.69535359
-33.82733568
-34.02248867
-34.31764349
-34.73263789
-35.26064576
-35.8620834
-36.46404143
-36.96629457
-37.2535811
-37.21236694
-36.74914233
-35.80679181
-34.37588166
-32.49872148
-30.26547499
-27.80303208
-25.25848566
-22.77972526
-20.49589028
-18.50035276
-16.83863921
-15.50325654
-14.43664772
-13.54235478
-12.70294701
-11.8016586
-10.74345613
-9.470941094
-7.971412469
-6.27351926
-4.434739003
-2.523609093
-0.602309695
1.284825986
3.113174589
4.869603245
6.537305724
8.079549708
9.429038431
10.48817365
11.14219536
11.28298112
10.83753781
9.793120449
8.211181326
6.224989937
4.020046651
1.801107784
-0.246619097
-1.992845845
-3.385680567
-4.457794541
-5.314238713
-6.105334743
-6.991436695
-8.107844141
-9.537521336
-11.29687725
-13.33643486
-15.55469105
-17.82069717
-19.99945995
-21.97437298
-23.66234888
-25.0196378
-26.03883917
-26.73969854
-27.15744788
-27.33247427
-27.30407517
-27.10932908
-26.78619664
-26.37841475
-25.93899864
-25.52946594
-25.21321353
-25.0434963
-25.04860586
-25.21842893
-25.49695914
-25.78422923
-25.94868656
-25.84790139
-25.3526522
-24.36787259
-22.84434084
-20.77742076
-18.19301745
-15.12505675
-11.59189974
-7.580057845
-3.041889487
2.090036318
7.874421609
14.32590304
21.3831328
28.8904754
36.60042382
44.19849817
51.3463037
57.73332462
63.1253889
67.3983424
70.54918253
72.68268078
73.97773245
74.64257281
74.87028626
74.80519759
74.52716643
74.0556264
73.36990313
72.4383229
71.24686429
69.8189366
68.22093055
66.55256052
64.9254715
63.43689211
62.14638326
61.06263976
60.14420476
59.31378947
58.48189722
57.57281264
56.54548062
55.40346312
54.19146632
52.97985326
51.84192834
50.83063302
49.96115228
49.20395028
48.48962846
47.72371531
46.80699931
45.65594128
44.21821657
42.48024198
40.46598614
38.22867033
35.83848413
33.36981994
30.89081406
28.45655502
26.10577284
23.85974018
21.72186902
19.67708907
17.6912059
15.71150712
13.67036813
11.49317607
9.110565116
6.473147692
3.565313143
0.413962981
-2.91128848
-6.307913974
-9.658917562
-12.85580664
-15.82020417
-18.5180865
-20.96230197
-23.20209463
-25.30199745
-27.31564453
-29.26183725
-31.10999806
-32.77990873
-34.15689595
-35.11938236
-35.57214232
-35.47671158
-34.87077258
-33.87091806
-32.65732542
-31.44347281
-30.43787869
-29.80691546
-29.64745315
-29.97549408
-30.73277302
-31.80869065
-33.07119799
-34.3983493
-35.70261884
-36.9425097
-38.11971106
-39.26402657
-40.41143978
-41.58220518
-42.76541147
-43.91424741
-44.95288974
-45.79251234
-46.35139837
-46.57324227
-46.43865741
-45.96727739
-45.21082916
-44.24017868
-43.1307934
-41.95095184
-40.75552528
-39.58587819
-38.47422588
-37.44941099
-36.54094344
-35.77925348
-35.19196464
-34.79787492
-34.60151411
-34.59115984
-34.7420175
-35.02431282
-35.41401856
-35.9025808
-36.50184756
-37.24155762
-38.15890922
-39.28225147
-40.61305243
-42.11133311
-43.68935734
-45.21658084
-46.53612615
-47.49006761
-47.94837267
-47.83511418
-47.14589849
-45.95228476
-44.39183948
-42.64565035
-40.90783477
-39.35319003
-38.10931372
-37.2383038
-36.73089192
-36.51315316
-36.46342079
-36.43527425
-36.28180509
-35.87683713
-35.13011093
-33.99515291
-32.47011629
-30.59293111
-28.43251021
-26.07764642
-23.62487675
-21.16628456
-18.77815641
-16.51160414
-14.38649996
-12.39004984
-10.48081845
-8.598003585
-6.674480722
-4.651013464
-2.488471897
-0.175184098
2.272320545
4.815192863
7.402951231
9.985777985
12.52477503
14.99718508
17.3951795
19.71887373
21.96612968
24.12283626
26.15732447
28.02132395
29.65775948
31.01338968
32.05256017
32.76776411
33.18350049
33.35189542
33.34112305
33.22002332
33.04366525
32.84443843
32.6315515
32.39908831
32.13990978
31.86066239
31.59265566
31.39456596
31.3454047
31.52914069
32.01487223
32.83777648
33.98589574
35.39628727
36.96168022
38.54625915
40.00720215
41.217582
42.08629569
42.57162477
42.68648902
42.49506761
42.10193371
41.63598086
41.23208258
41.01354768
41.07800055
41.48841506
42.26985729
43.41132849
44.87123564
46.58465906
48.47078874
50.43954705
52.39725971
54.25197165
55.91934504
57.32984551
58.43713166
59.22644673
59.72078905
59.98218231
60.10582956
60.20638
60.39766507
60.76945961
61.36636328
62.17417453
63.11789394
64.07296069
64.88813245
65.41543564
65.54067538
65.20765461
64.43061899
63.29217069
61.92726847
60.49708734
59.15865922
58.03686636
57.20443748
56.67343914
56.39898357
56.29320372
56.24559561
56.14497545
55.89861658
55.44539804
54.76157424
53.8595431
52.78129474
51.58881411
50.35360074
49.14688924
48.03142605
47.05506291
46.24612122
45.61047619
45.13049725
44.76618163
44.45885241
44.13755289
43.72776632
43.16145303
42.38684139
41.37614685
40.12956513
38.67450709
37.06000747
35.34733357
33.59875739
31.86694599
30.18727416
28.57456895
27.02457858
25.51920022
24.03360037
22.54308114
21.02792604
19.47532529
17.87851937
16.23416213
14.53931978
12.78938646
10.97761921
9.096241383
7.138437133
5.100273579
2.981702656
0.786227199
-1.480614299
-3.813288839
-6.207919235
-8.662699341
-11.17663675
-13.74682185
-16.36508405
-19.01533062
-21.67286553
-24.30649425
-26.88336096
-29.37551421
-31.76648495
-34.05594405
-36.26088146
-38.41262371
-40.55013405
-42.71109085
-44.92290105
-47.1958862
-49.52036588
-51.86842124
-54.20000936
-56.4720871
-58.64870647
-60.7098002
-62.65663835
-64.51265909
-66.31941531
-68.12850736
-69.99132542
-71.94895713
-74.02456512
-76.21989245
-78.51647353
-80.88091756
-83.2726395
-85.65191531
-87.98624564
-90.25365079
-92.44246865
-94.54819888
-96.56866993
-98.4991306
-100.3287375
-102.0394005
-103.6072273
-105.0060855
-106.2122735
-107.2090818
-107.9901689
-108.5610843
-108.9388055
-109.1496316
-109.2260704
-109.2034117
-109.116528
-108.9972007
-108.8720525
-108.7610623
-108.6766575
-108.6234494
-108.598709
-108.593606
-108.5950599
-108.5878658
-108.5566726
-108.4874678
-108.3684534
-108.1904476
-107.9470933
-107.6351095
-107.2545992
-106.8091471
-106.3052612
-105.7507633
-105.1520778
-104.5109048
-103.8213119
-103.0685642
-102.2308436
-101.2843056
-100.210797
-99.00631749
-97.68733519
-96.29176515
-94.87205546
-93.47942725
-92.14064299
-90.83122227
-89.45111959
-87.80985321
-85.62743004
-82.55498075
-78.21507999
-72.25703314
-64.41808799
-54.57881402
-42.80075393
-29.3372427
-14.61354129
0.821078197
16.36058373
31.4159956
45.48198295
58.18472276
69.30429917
78.77089195
86.63953021
93.05190936
98.19495137
102.2644821
105.4393332
107.8674533
109.6623406
110.9061025
111.6550297
111.9445821
111.7925493
111.2010874
110.1596243
108.65078
106.6604241
104.1911838
101.2768088
97.99353476
94.46447707
90.8542683
87.35333891
84.15386168
81.42170531
79.27012197
77.74091824
76.79749413
76.33170545
76.1835938
76.17029597
76.11848323
75.89389138
75.42203809
74.69598292
73.76964138
72.73821999
71.71018363
70.77716535
69.9888549
69.33888917
68.76524295
68.16513316
67.42086751
66.43033336
65.13467115
63.53641697
61.7038161
59.76043784
57.86274323
56.1709611
54.81986847
53.89562982
53.42297044
53.36424766
53.62920803
54.09208573
54.61167807
55.05025598
55.28840449
55.23464164
54.83031421
54.05127121
52.90788597
51.4442198
49.73592396
47.88548163
46.01315711
44.24281892
42.68349109
41.40952495
40.44390105
39.74963018
39.23309599
38.76055677
38.18553456
37.38148814
36.2720677
34.85115153
33.18695874
31.40835504
29.67602241
28.14519327
26.92901067
26.07157995
25.53740301
25.21977159
24.96593841
24.61273161
24.02378979
23.11939064
21.89194445
20.40403631
18.77037685
17.12893794
15.60886828
14.3029712
13.25069618
12.43442762
11.7883342
11.21613303
10.61250032
9.882775302
8.956887724
7.795597759
6.389506474
4.75320369
2.917853551
0.925254646
-1.174899473
-3.324694911
-5.456459162
-7.49278005
-9.35059589
-10.95048019
-12.23016702
-13.15931354
-13.75121951
-14.06724842
-14.21114338
-14.31296429
-14.50528125
-14.89667889
-15.54880182
-16.46269593
-17.57814331
-18.78658143
-19.95487429
-20.95455215
-21.68983957
-22.11814593
-22.25854324
-22.18657824
-22.01683539
-21.87727494
-21.88099379
-22.10144667
-22.55633625
-23.20355687
-23.95011601
-24.67231151
-25.24310279
-25.56104447
-25.57468693
-25.29711272
-24.80713482
-24.23628041
-23.74352741
-23.48232123
-23.56619606
-24.03999379
-24.86301673
-25.90848298
-26.98063527
-27.84729645
-28.28227068
-28.10952846
-27.24023942
-25.69477081
-23.60464224
-21.19353346
-18.74084765
-16.53499578
-14.82562407
-13.78400398
-13.47881171
-13.87108449
-14.82810532
-16.15225848
-17.6182901
-19.01136404
-20.1588977
-20.95110942
-21.34795924
-21.37305779
-21.09754168
-20.61843147
-20.03640709
-19.43731294
-18.88030428
-18.39376177
-17.9783558
-17.61529413
-17.27705215
-16.93781996
-16.58141267
-16.20529002
-15.82038757
-15.4474492
-15.11128586
-14.83473589
-14.63400474
-14.51653104
-14.48168744
-14.52370418
-14.635491
-14.81177627
-15.05028819
-15.35047448
-15.71022423
-16.12186848
-16.56908817
-17.02610385
-17.45973274
-17.83385573
-18.11493346
-18.27680702
-18.30329885
-18.18801112
-17.93187108
-17.53993174
-17.01928611
-16.37949042
-15.63572776
-14.8134915
-13.95241976
-13.10661271
-12.33957103
-11.71364432
-11.27601441
-11.0450029
-11.00119178
-11.0871015
-11.2170632
-11.29599318
-11.24288988
-11.01295418
-10.61198016
-10.09829676
-9.570706789
-9.144718178
-8.922792607
-8.966320981
-9.276926282
-9.79243669
-10.39904165
-10.95679937
-11.33204061
-11.4283499
-11.20822768
-10.7000999
-9.989286698
-9.195735848
-8.444612717
-7.83736473
-7.430328022
-7.225596313
-7.175486505
-7.198496968
-7.20206332
-7.106231158
-6.862686758
-6.465114656
-5.949056772
-5.381771418
-4.844579679
-4.411551666
-4.128991111
-4.000002808
-3.977530484
-3.967756012
-3.843852343
-3.468059934
-2.718254242
-1.51396107
0.163514432
2.261360203
4.658559567
7.182220117
9.634113472
11.82229241
13.59143443
14.84580388
15.56042085
15.77876604
15.59841304
15.14853627
14.56463134
13.96572782
13.43805669
13.02709823
12.73785636
12.54164416
12.38690374
12.21158801
11.95513723
11.56873745
11.02307245
10.31306928
9.459266541
8.505580723
7.513565066
6.553785561
5.695567627
4.996877671
4.496266719
4.208479142
4.124539647
4.21606987
4.442560253
4.759649752
5.126357686
5.509700704
5.8860531
6.239668757
6.559633618
6.836885829
7.062716972
7.229442331
7.332959377
7.376040987
7.370742813
7.338419966
7.306530897
7.302447499
7.345556637
7.43968277
7.568042837
7.692505887
7.758005769
7.701808134
7.466248169
7.012746465
6.334481812
5.465076581
4.481034909
3.496477342
2.649935486
2.084523837
1.924458688
2.252243831
3.091409282
4.399100589
6.071009144
7.958452835
9.894540665
11.72408186
13.33088033
14.65658589
15.70721065
16.54623395
17.2761765
18.01290781
18.85826343
19.87660634
21.07988502
22.42384491
23.81576789
25.13188909
26.24086189
27.02859272
27.41958794
27.39064085
26.97411345
26.25002076
25.32831533
24.32483641
23.335925
22.41731744
21.57234145
20.7526145
19.87167444
18.82885559
17.53804011
15.95440981
14.09248107
12.03057646
9.900046753
7.86121901
6.071282084
4.651332638
3.660130594
3.080718818
2.823302956
2.744284703
2.67783273
2.473574669
2.032471365
1.333024719
0.441710146
-0.495368554
-1.278713082
-1.694789469
-1.560751169
-0.76536716
0.702423426
2.743433313
5.158909001
7.679964582
10.00995861
11.87150734
13.04912506
13.41966446
12.96548041
11.76890903
9.99040689
7.835719272
5.519148933
3.230120973
1.108889155
-0.765198209
-2.372367396
-3.740258287
-4.925149079
-5.991619733
-6.995306346
-7.971971486
-8.934117736
-9.874370517
-10.77336344
-11.60918738
-12.3656597
-13.03753477
-13.63196128
-14.16661229
-14.66567334
-15.15513539
-15.65864643
-16.1947002
-16.77539583
-17.40655177
-18.08867977
-18.81822832
-19.58856615
-20.39036528
-21.21132125
-22.03546091
-22.84255445
-23.60827938
-24.30570543
-24.90836285
-25.39468239
-25.75308021
-25.98656474
-26.11560367
-26.17817726
-26.22643444
-26.32005352
-26.51713606
-26.86408498
-27.38632039
-28.0817843
-28.91891341
-29.84007635
-30.77041562
-31.63076739
-32.3521637
-32.88872317
-33.22581079
-33.38128684
-33.3992935
-33.33793317
-33.25385248
-33.18767825
-33.15415938
-33.13972565
-33.10824561
-33.01355221
-32.81542008
-32.4946693
-32.06323666
-31.56634641
-31.07595492
-30.67687003
-30.44878244
-30.44846329
-30.69638265
-31.17102961
-31.81250038
-32.53482841
-33.24449276
-33.86099485
-34.33471616
-34.65768866
-34.86442971
-35.02234115
-35.21381363
-35.514414
-35.972694
-36.59683267
-37.35153991
-38.16590266
-38.94995791
-39.61557261
-40.09629895
-40.36142138
-40.42113957
-40.32213146
-40.13490291
-39.93577352
-39.78679835
-39.71649082
-39.70332299
-39.66320303
-39.44191604
-38.81396015
-37.48997018
-35.13531655
-31.40178167
-25.97205769
-18.61336934
-9.232625291
2.077602117
15.01397773
29.06792862
43.56652544
57.74627099
70.849655
82.22812988
91.43221362
98.27075074
102.8269146
105.4271777
106.5692522
106.8236213
106.7286937
106.7005166
106.9741903
107.5865805
108.4005235
109.1617692
109.5735206
109.3709611
108.3799084
106.5488995
103.9510556
100.7591331
97.2025856
93.51821097
89.90578215
86.49743338
83.34541289
80.42822209
77.67116148
74.97468083
72.24310639
69.40728458
66.43702967
63.34229364
60.16488064
56.96458144
53.80434869
50.73850083
47.80625743
45.03078646
42.42209833
39.98113431
37.70253233
35.57467627
33.5772719
31.67820805
29.83227054
27.98403473
26.07597934
24.06091579
21.91585596
19.65315401
17.32470085
15.01630874
12.83193976
10.87045105
9.200176647
7.838095122
6.73997969
5.805696898
4.900148886
3.886128663
2.661696538
1.192637756
-0.469191695
-2.188172236
-3.769872344
-5.005195329
-5.725206194
-5.854665012
-5.451357719
-4.720294158
-3.996508927
-3.696725842
-4.247226046
-6.001321552
-9.163354251
-13.73601449
-19.50369087
-26.0572062
-32.85627682
-39.31753724
-44.91016733
-49.23957435
-52.1026271
-53.50476664
-53.6380755
-52.82779075
-51.46076658
-49.91180685
-48.48243264
-47.36231503
-46.61767479
-46.20496437
-46.00339185
-45.85711865
-45.61748168
-45.17706099
-44.49019455
-43.57786051
-42.51800448
-41.42488736
-40.42260785
-39.61853659
-39.08201372
-38.83239425
-38.83853686
-39.02941213
-39.31309268
-39.59950661
-39.8214649
-39.94888386
-39.99277205
-39.99807578
-40.02728104
-40.13906663
-40.36768203
-40.70869839
-41.11529649
-41.50662318
-41.78658957
-41.86859975
-41.69986476
-41.27871852
-40.65985983
-39.94538429
-39.26312568
-38.7372566
-38.45838234
-38.46084603
-38.71344337
-39.12653724
-39.57443357
-39.92786157
-40.08853328
-40.01683252
-39.745039
-39.37190135
-39.03906006
-38.89462561
-39.05288035
-39.56056789
-40.3790604
-41.38802817
-42.41091263
-43.25681758
-43.76882087
-43.86639276
-43.57028867
-43.00194737
-42.35530775
-41.845701
-41.64644928
-41.82750509
-42.31090485
-42.85477008
-43.07169457
-42.47993387
-40.5785764
-36.93250957
-31.25074467
-23.44302947
-13.64428767
-2.203147021
10.36195048
23.42948842
36.35129269
48.52495219
59.45101361
68.76822643
76.265373
81.87287253
85.64037747
87.7075509
88.27431568
87.57476012
85.85644067
83.36482114
80.33151013
76.96487777
73.44226894
69.90391207
66.44928749
63.13688061
59.98786068
56.99347203
54.12509693
51.34533853
48.61826623
45.9172053
43.22904308
40.55479756
37.90695942
35.30471335
32.76845749
30.31502131
27.95465118
25.69027683
23.51892953
21.43461274
19.43156182
17.50675482
15.66076842
13.89656472
12.21643769
10.61799249
9.090507412
7.61317504
6.156425713
4.686795096
3.174747633
1.603784678
-0.021600551
-1.671699236
-3.293034029
-4.816084838
-6.168199547
-7.288999574
-8.144586115
-8.736792683
-9.104718529
-9.317624644
-9.460520663
-9.615801937
-9.845515903
-10.17885276
-10.60820473
-11.09491498
-11.58321944
-12.01858115
-12.36528119
-12.61818015
-12.80504858
-12.97843036
-13.19896748
-13.51465308
-13.94186375
-14.45383029
-14.98044359
-15.4203818
-15.66322212
-15.6163433
-15.22983331
-14.5127907
-13.5363746
-12.42223237
-11.31865059
-10.36994297
-9.686373972
-9.321861055
-9.264822259
-9.444313419
-9.749836904
-10.05983666
-10.27176858
-10.32629835
-10.21973299
-10.00185136
-9.760074002
-9.594415935
-9.589971459
-9.794180105
-10.20469212
-10.77069352
-11.40688395
-12.01593538
-12.51311002
-12.84634499
-13.00657147
-13.0258685
-12.96443533
-12.89037238
-12.85811318
-12.89160739
-12.97699597
-13.0669209
-13.09545172
-12.99970632
-12.74234896
-12.32876368
-11.81393746
-11.29663429
-10.90165593
-10.75406328
-10.95140648
-11.54073067
-12.50617648
-13.77056442
-15.21099289
-16.68499859
-18.06111152
-19.24641996
-20.20441987
-20.95883481
-21.58264753
-22.17534382
-22.83433489
-23.62792271
-24.57666485
-25.6477475
-26.76358808
-27.82223126
-28.72409838
-29.3980662
-29.82010173
-30.01970399
-30.07265188
-30.08213437
-30.15326364
-30.36748179
-30.76314889
-31.32683452
-31.99711001
-32.67970001
-33.27037687
-33.68042165
-33.85901885
-33.80755441
-33.58225472
-33.28366796
-33.03384141
-32.94436742
-33.08042806
-33.42725079
-33.86572671
-34.16315403
-33.98310784
-32.91546263
-30.52401028
-26.40555463
-20.25158123
-11.90230693
-1.383565096
11.08038536
25.08087469
40.06357512
55.38547976
70.38058634
84.42383147
96.98408807
107.6600519
116.1967226
122.4839038
126.5408488
128.4924331
128.5420662
126.9453717
123.9870071
119.9614051
115.1570746
109.8435898
104.2605196
98.60810859
93.04023107
87.66067605
82.52391785
77.64109397
72.99101124
68.53487373
64.23240272
60.05643352
56.00315108
52.09589838
48.38178633
44.92184345
41.77682256
38.99174224
36.58259505
34.52831983
32.77014269
31.21888779
29.76912711
28.31745115
26.78108575
25.11283472
23.30898283
21.40822615
19.48160105
17.61534988
15.89026439
14.36193661
13.04631904
11.91403044
10.89509534
9.893582168
8.809331807
7.562138808
6.112834039
4.476053458
2.721124935
0.960180743
-0.674302162
-2.057616532
-3.100100886
-3.767133999
-4.087121979
-4.145703739
-4.067794181
-3.991998253
-4.043586158
-4.312216493
-4.839011747
-5.614952676
-6.589649097
-7.687161456
-8.824270194
-9.926639935
-10.93954284
-11.83173246
-12.59309549
-13.22828328
-13.74925087
-14.16939287
-14.50093601
-14.75581246
-14.94887525
-15.10145038
-15.24310593
-15.41017189
-15.64074149
-15.96722391
-16.40855119
-16.9645173
-17.61430155
-18.32011209
-19.03539695
-19.71564789
-20.32889301
-20.86284318
-21.32641903
-21.74489357
-22.14976168
-22.56616256
-23.00168227
-23.44024975
-23.84351871
-24.15989986
-24.33891573
-24.34660749
-24.17703565
-23.85581758
-23.43394532
-22.9731452
-22.52682086
-22.1222508
-21.74963002
-21.36173723
-20.88500204
-20.23944349
-19.3623403
-18.22935004
-16.86743774
-15.35617475
-13.81702348
-12.39320954
-11.22486252
-10.42479706
-10.05959323
-10.13892579
-10.61402243
-11.38432922
-12.31034021
-13.23021394
-13.97807528
-14.40243229
-14.38354492
-13.84861276
-12.78329984
-11.23764416
-9.324236326
-7.207093019
-5.081062739
-3.143692129
-1.563725704
-0.452100281
0.158233931
0.31846244
0.1534879
-0.16393268
-0.449607475
-0.547136758
-0.361072483
0.123831843
0.842067091
1.665899339
2.438707893
3.015098949
3.297910011
3.262803361
2.964103922
2.520197783
2.082033532
1.792720127
1.748696467
1.972734831
2.406098882
2.922204355
3.358403034
3.557563757
3.408342127
2.87324694
1.996840661
0.891805596
-0.29332621
-1.41595604
-2.379332597
-3.159834651
-3.814446063
-4.466738378
-5.275485066
-6.394518154
-7.934394724
-9.935438679
-12.35820864
-15.09255661
-17.98163565
-20.85380325
-23.55415901
-25.96855424
-28.03575419
-29.74702084
-31.13563556
-32.26095583
-33.19210507
-33.99541633
-34.72776879
-35.43566481
-36.15800687
-36.92958561
-37.78250578
-38.74401562
-39.8310049
-41.04316009
-42.35779557
-43.72932271
-45.09512619
-46.38761304
-47.54999903
-48.55173411
-49.39896704
-50.13639044
-50.8390021
-51.59513687
-52.48470345
-53.55809384
-54.82123576
-56.23072677
-57.70038852
-59.11768324
-60.36605909
-61.34804502
-62.00403027
-62.32297066
-62.34329309
-62.14443559
-61.83123847
-61.51446581
-61.29100267
-61.22686877
-61.34536279
-61.62166096
-61.98423282
-62.32261195
-62.50040743
-62.37196692
-61.80079104
-60.67763231
-58.93617578
-56.56430191
-53.60921887
-50.17527962
-46.41409814
-42.5076075
-38.64582987
-35.00215856
-31.70966012
-28.84208985
-26.40286041
-24.32412589
-22.4766106
-20.68909502
-18.77487806
-16.56132734
-13.91799033
-10.77875945
-7.154270657
-3.132011706
1.13659581
5.460778151
9.643143512
13.51520208
16.96915159
19.97935406
22.60824531
24.99410159
27.3217632
29.78134359
32.52317889
35.61887421
39.03767357
42.64445469
46.22097814
49.50667316
52.2505442
54.26294712
55.45577038
55.86205061
55.63065108
54.99722212
54.23790681
53.61593413
53.33254141
53.49237665
54.09005296
55.01974166
56.10470725
57.13958891
57.9358669
58.36076486
58.3617853
57.97262605
57.30049683
56.4988371
55.73224421
55.14150897
54.81592605
54.77783339
54.98127926
55.32359116
55.66614829
55.85933994
55.76667542
55.28406923
54.3519647
52.95964001
51.14237105
48.97295716
46.54950878
43.98150685
41.37610731
38.82652329
36.40403064
34.1546413
32.1007526
30.24717785
28.59005584
27.1264403
25.86210481
24.81540361
24.01590793
23.49782036
23.28955367
23.40199015
23.81851932
24.48982549
25.33556609
26.2536973
27.13651391
27.89079078
28.45808814
28.83065716
29.05873069
29.24641138
29.53570109
30.08096684
31.01860942
32.43818652
34.36127156
36.73282729
39.42718903
42.2675499
45.05490793
47.60047608
49.75500881
51.42943692
52.60332174
53.32035668
53.67276818
53.77841022
53.75527745
53.69806825
53.66054764
53.64614766
53.60782841
53.45690456
53.07937302
52.3572401
51.19146983
49.52260175
47.34506318
44.71195829
41.72872537
38.53630123
35.28682562
32.11682039
29.12361639
26.35026683
23.78234307
21.35727712
18.98396297
16.56789913
14.03587602
11.35443068
8.537969478
5.645159925
2.765187417
-0.002064349
-2.566586667
-4.864487703
-6.866405141
-8.576991992
-10.02685915
-11.2602268
-12.32232977
-13.25020926
-14.0691083
-14.79472987
-15.43969275
-16.02117732
-16.56636736
-17.11297857
-17.70374326
-18.37576099
-19.14754095
-20.00776664
-20.90987678
-21.77535751
-22.50642555
-23.00612799
-23.20153531
-23.06436021
-22.62344259
-21.96516888
-21.22069297
-20.54211181
-20.07266921
-19.91781668
-20.12402014
-20.67046986
-21.47572043
-22.41755693
-23.36104808
-24.18771949
-24.81862421
-25.22584865
-25.43017755
-25.48636465
-25.46069311
-25.40740085
-25.35062687
-25.27684586
-25.13980206
-24.87652902
-24.43003302
-23.77237312
-22.92163189
-21.94767816
-20.96431558
-20.10872414
-19.51223622
-19.26871898
-19.40768339
-19.87857252
-20.55069325
-21.23037356
-21.69369069
-21.73005337
-21.18949512
-20.02511654
-18.32198615
-16.3051419
-14.32213802
-12.7996438
-12.17844922
-12.83611104
-15.01039311
-18.73854153
-23.82640507
-29.85708883
-36.24163328
-42.30544136
-47.39582363
-50.99028387
-52.78374615
-52.73648828
-51.0724173
-48.22765538
-44.75973559
-41.23566502
-38.12103266
-35.6916114
-33.98397988
-32.79383297
-31.72153199
-30.25577291
-27.87948341
-24.17825378
-18.93132613
-12.16841896
-4.181879951
4.508249807
13.23014621
21.26352856
27.95183651
32.803073
35.56127126
36.2361391
35.08648073
32.56193357
29.21555282
25.60512011
22.20258341
19.32844794
17.1218814
15.54921283
14.44526449
13.57541586
12.70285862
11.64579638
10.3130971
8.713022373
6.936511487
5.122370456
3.415242251
1.927741446
0.71577155
-0.228326093
-0.965219299
-1.585485449
-2.181543865
-2.822675358
-3.539498275
-4.32106349
-5.124005276
-5.890005265
-6.566004152
-7.121470289
-7.558428499
-7.912295266
-8.244115321
-8.626861892
-9.129585618
-9.803224141
-10.67097506
-11.72467663
-12.92710959
-14.21894214
-15.52841923
-16.78185222
-17.91332186
-18.87251841
-19.63010023
-20.18026018
-20.54037359
-20.74776533
-20.85387753
-20.91647274
-20.99089756
-21.12171955
-21.33610492
-21.64006906
-22.01825276
-22.437275
-22.85213092
-23.21465218
-23.48277261
-23.62923049
-23.64834904
-23.55965724
-23.40738397
-23.25534991
-23.17752547
-23.2454512
-23.51463384
-24.01265465
-24.73177982
-25.62819396
-26.62863915
-27.64351826
-28.58386249
-29.37845476
-29.98719793
-30.40761753
-30.67300341
-30.84271186
-30.9870577
-31.17053651
-31.43748336
-31.80357964
-32.25503638
-32.7552412
-33.25672483
-33.71501075
-34.10058894
-34.40595139
-34.64611377
-34.8528974
-35.06494508
-35.31653501
-35.62844911
-36.0034098
-36.42714892
-36.87444736
-37.318003
-37.73719605
-38.1239609
-38.48397881
-38.83293503
-39.18913951
-39.56491819
-39.95954745
-40.35607883
-40.72335852
-41.02319065
-41.22125894
-41.29937994
-41.26608741
-41.16251949
-41.06110925
-41.0556286
-41.24261498
-41.69595343
-42.438141
-43.41319669
-44.46694406
-45.34017148
-45.67878032
-45.06248858
-43.05027096
-39.2370833
-33.31335267
-25.11706171
-14.66865611
-2.181639096
11.95382927
27.21171631
42.98784008
58.66395875
73.6670291
87.51442243
99.83986272
110.3996747
119.063285
125.7947038
130.6323391
133.6729903
135.0628504
134.9947958
133.7082757
131.4866168
128.6470218
125.5208156
122.424895
119.6287792
117.3240139
115.6031328
114.4536916
113.7694992
113.3770544
113.0715551
112.6547107
111.9665227
110.9051179
109.4319871
107.5636533
105.3538869
102.8723731
100.18586
97.34634608
94.38826908
91.33371058
88.20218094
85.02033947
81.82736547
78.67346739
75.61157412
72.68473275
69.91334354
67.2866048
64.76137147
62.26942767
59.73161155
57.07508034
54.24892423
51.23369057
48.04211081
44.7109492
41.28662261
37.80921137
34.30003759
30.75691146
27.1587433
23.47822537
19.69862833
15.82925949
11.91427044
8.031272038
4.27911878
0.757422437
-2.457086812
-5.331060859
-7.886162062
-10.19823156
-12.38356791
-14.57521028
-16.89471823
-19.42611875
-22.1981438
-25.17877037
-28.28298063
-31.39142259
-34.37514187
-37.12042443
-39.54828013
-41.62497059
-43.36260976
-44.81143305
-46.04710094
-47.15693799
-48.22829132
-49.34061619
-50.5611098
-51.9423899
-53.52031193
-55.31063403
-57.30457283
-59.46476682
-61.72413517
-63.99011993
-66.15570607
-68.11668872
-69.79246276
-71.14583433
-72.19661075
-73.02438314
-73.75797924
-74.55213833
-75.5553194
-76.87530104
-78.55053772
-80.53458881
-82.69831459
-84.85047901
-86.77290597
-88.26260371
-89.17135046
-89.433705
-89.07718946
-88.21277528
-87.0086319
-85.65409531
-84.32292471
-83.14459749
-82.18977206
-81.47188817
-80.96236508
-80.6132775
-80.37974038
-80.23495109
-80.17365581
-80.20384556
-80.33051145
-80.53807899
-80.7788466
-80.9731234
-81.02322202
-80.83900237
-80.3685653
-79.62517705
-78.70136277
-77.76350053
-77.02466684
-76.6989043
-76.94520929
-77.81310575
-79.20271253
-80.85028537
-82.34554624
-83.18059853
-82.82327395
-80.80197484
-76.78588714
-70.64471464
-62.47589462
-52.59381111
-41.48334497
-29.72737022
-17.92282645
-6.601625671
3.829398575
13.12037685
21.17972388
28.04910297
33.86114344
38.79120008
43.01372302
46.6707939
49.85620775
52.61439631
54.95051117
56.84662889
58.27925273
59.23455715
59.71943985
59.76778973
59.442124
58.83092503
58.04190982
57.19146439
56.39083644
55.73043765
55.2645463
54.99944199
54.88814633
54.83421907
54.70546387
54.35623071
53.65480662
52.51077566
50.89669807
48.85922665
46.51673222
44.04322599
41.64122665
39.50856742
37.80544659
36.62802089
35.99355119
35.83983163
36.03883162
36.42169201
36.80997148
37.04680692
37.02175653
36.68460715
36.04607086
35.16644841
34.13616335
33.05375629
32.0069562
31.06081011
30.25411219
29.60248762
29.10447871
28.74655755
28.50427445
28.33923387
28.19429328
27.99119546
27.63492247
27.02715697
26.08786613
24.78033228
23.13233096
21.24573072
19.28899036
17.47139792
16.00319198
15.05030609
14.69489555
14.9121767
15.57047601
16.45569793
17.3152447
17.91145638
18.07221242
17.72703982
16.92065239
15.80131957
14.58741493
13.52044534
12.81563452
12.62114412
12.99438796
13.89941418
15.22418697
16.81206977
18.49893084
20.14664574
21.66539251
23.02051713
24.22397746
25.31436159
26.33222632
27.29835062
28.2012745
28.99756152
29.6244033
30.02054359
30.14905481
30.0149321
29.67193445
29.21618371
28.7678586
28.44579718
28.34193197
28.50259548
28.92180023
29.54817706
30.30334991
31.10627074
31.89637882
32.64886678
33.37771634
34.1258237
34.94539516
35.8747164
36.91851157
38.03807522
39.15448318
40.16431643
40.96359983
41.47315748
41.65805168
41.53537993
41.16801623
40.64595566
40.06056423
39.47915889
38.92729306
38.38388997
37.79059549
37.07253073
36.16426573
35.03331877
33.69425235
32.20923363
30.67488731
29.19919631
27.87494448
26.75698461
25.84930632
25.10495506
24.43825186
23.74555466
22.9288584
21.91627106
20.67472639
19.21268293
17.57327751
15.8207217
14.02410023
12.24288743
10.51750321
8.866442399
7.289492051
5.774909114
4.307628547
2.875779928
1.473836229
0.102163001
-1.235958891
-2.538038089
-3.805048828
-5.042027304
-6.256571979
-7.45617122
-8.645763851
-9.826785192
-10.99823306
-12.15929788
-13.31224738
-14.46391133
-15.62446497
-16.80318936
-18.00216745
-19.20998867
-20.39803529
-21.52154587
-22.52641485
-23.36090995
-23.98970287
-24.40640041
-24.64059101
-24.75646099
-24.84209525
-24.99113577
-25.28081149
-25.75177887
-26.39525528
-27.15147944
-27.92088682
-28.5861726
-29.04045261
-29.21483371
-29.09844307
-28.7454962
-28.26698012
-27.80826455
-27.51749881
-27.51211193
-27.85145928
-28.52240392
-29.44160282
-30.47417083
-31.46423326
-32.26977014
-32.79299787
-32.99871034
-32.9162207
-32.6249115
-32.22769402
-31.81971538
-31.46064423
-31.15761524
-30.86285103
-30.48601536
-29.917586
-29.05694723
-27.83807777
-26.24672914
-24.32545189
-22.16601835
-19.8918761
-17.63549816
-15.51636422
-13.62465438
-12.01378807
-10.7022617
-9.68260183
-8.933433093
-8.430206285
-8.151156541
-8.077194175
-8.186924418
-8.449979094
-8.822625157
-9.248899122
-9.66851484
-10.0301589
-10.30641077
-10.50524116
-10.67337196
-10.88875867
-11.24259457
-11.81464119
-12.64829416
-13.73267847
-14.99777403
-16.32531064
-17.57380346
-18.61190678
-19.35153659
-19.77182523
-19.92710314
-19.93618353
-19.95513773
-20.14015292
-20.60977824
-21.41616489
-22.53270338
-23.86132167
-25.25770505
-26.56812873
-27.66863839
-28.49672236
-29.06752283
-29.47052835
-29.84758337
-30.35772086
-31.13760944
-32.26748218
-33.7509959
-35.51390411
-37.42162569
-39.31100515
-41.02803848
-42.46198662
-43.5674344
-44.36914051
-44.94907495
-45.41965087
-45.89062569
-46.43858493
-47.086999
-47.80185381
-48.50363562
-49.09212724
-49.47716697
-49.60706103
-49.48705814
-49.18296695
-48.80890281
-48.50227701
-48.39243558
-48.57098443
-49.07139566
-49.86308929
-50.86144177
-51.95105245
-53.01617486
-53.97037644
-54.7776828
-55.45958332
-56.08571087
-56.74985374
-57.53628582
-58.48350896
-59.55304255
-60.60990486
-61.41925703
-61.6608596
-60.96009539
-58.93181089
-55.23140106
-49.60649384
-41.9422574
-32.29373484
-20.89976173
-8.175014745
5.32046264
18.93159248
31.97249581
43.79609881
53.85935987
61.77484573
67.34153135
70.55109637
71.56996959
70.70118868
68.33312744
64.88381062
60.74963147
56.26582747
51.68336219
47.1634736
42.78778849
38.57926255
34.52778783
30.61432284
26.82871471
23.17858226
19.6891268
16.39593444
13.33425262
10.52861534
7.986060559
5.694773286
3.628210606
1.753098203
0.03856058
-1.536661517
-2.981374849
-4.294634253
-5.473425312
-6.523117096
-7.467336636
-8.353672038
-9.252413126
-10.24725136
-11.41907206
-12.82610698
-14.48519704
-16.35930873
-18.35555504
-20.33588551
-22.1397251
-23.61479875
-24.64994278
-25.20256094
-25.31394209
-25.10789763
-24.77163182
-24.52162442
-24.5606638
-25.03423574
-25.9947949
-27.38098511
-29.01599007
-30.62553089
-31.87235315
-32.40109579
-31.88575759
-30.07184671
-26.80666787
-22.05372959
-15.89037874
-8.490837411
-0.099210256
9.001704682
18.52002297
28.17828702
37.72847284
46.9584493
55.69188249
63.78475987
71.12177186
77.61479549
83.20406493
87.86087867
91.58949282
94.42561306
96.42973478
97.67525502
98.23327651
98.1577017
97.4749729
96.18227879
94.25620553
91.67105335
88.42308583
84.55468359
80.17148822
75.44657079
70.60838394
65.91318988
61.60682217
57.8838896
54.85387732
52.5225335
50.79361195
49.49128068
48.39853291
47.3030479
46.04016328
44.52340288
42.75614685
40.82270517
38.86203486
37.03133931
35.46880819
34.26435622
33.44460188
32.97426032
32.77172678
32.7330896
32.75708883
32.76407066
32.70455054
32.55673499
32.31603601
31.98204242
31.54881068
31.00261319
30.32806716
29.5200107
28.59586934
27.6025279
26.61321017
25.71314312
24.97679623
24.44290265
24.09509285
23.85515016
23.59275801
23.15101852
22.38232934
21.18581114
19.53642283
17.49755997
15.21291566
12.87865396
10.7021011
8.85681661
7.4450675
6.477055816
5.87214558
5.481838861
5.128768144
4.651913597
3.946666646
2.989658312
1.842133314
0.631119534
-0.486652066
-1.368638588
-1.926677016
-2.152895631
-2.124487881
-1.986032065
-1.913914629
-2.072059874
-2.57037665
-3.4365626
-4.608401943
-5.948397178
-7.276879978
-8.415128308
-9.22765266
-9.653281156
-9.717802196
-9.525838328
-9.234962507
-9.019350518
-9.032344804
-9.37673553
-10.08872064
-11.13741932
-12.43778072
-13.87187625
-15.31251099
-16.64382828
-17.77556752
-18.65004431
-19.24295489
-19.5602321
-19.63325051
-19.51391108
-19.27000264
-18.98027403
-18.72826302
-18.59425278
-18.64559748
-18.92670671
-19.45076793
-20.19547506
-21.10446706
-22.09496684
-23.07058282
-23.93686244
-24.61641196
-25.06046911
-25.25470035
-25.21839234
-24.99768359
-24.65464224
-24.25460241
-23.85418975
-23.49201456
-23.18328893
-22.91883824
-22.6682841
-22.38665201
-22.02330809
-21.53191747
-20.88000738
-20.05669831
-19.07726136
-17.98341835
-16.83878769
-15.7196191
-14.70189584
-13.84683428
-13.18752221
-12.71965441
-12.39888988
-12.1462556
-11.86140548
-11.44171792
-10.80361325
-9.901552641
-8.740276162
-7.377030901
-5.912611663
-4.472535933
-3.182026252
-2.140111412
-1.398649156
-0.951223871
-0.734796386
-0.644099599
-0.555735333
-0.356481064
0.030880303
0.630451397
1.409018655
2.28574043
3.153168933
3.904122687
4.457421603
4.775851256
4.871863707
4.799880498
4.637726942
4.462686561
4.329093673
4.253872327
4.21411451
4.157316101
4.02123425
3.75752776
3.35218699
2.836587615
2.285596786
1.802806258
1.496642865
1.453768936
1.717071694
2.274392741
3.06127835
3.977220558
4.91114164
5.76926652
6.497766561
7.093893563
7.602423297
8.098256859
8.659882623
9.341032005
10.14855771
11.03312098
11.8960281
12.61128697
13.05772336
13.15292826
12.87981531
12.29806842
11.53648321
10.76720359
10.16776427
9.880291992
9.978206314
10.44898026
11.19742054
12.0685996
12.88446808
13.48470099
13.76144138
13.67951834
13.27784276
12.65280828
11.92918237
11.22688503
10.63249942
10.18236537
9.860402531
9.609569062
9.352319288
9.013510931
8.539308578
7.907506601
7.127637667
6.232297555
5.263422667
4.258230097
3.239030322
2.209436783
1.157229781
0.062021025
-1.095444193
-2.325659367
-3.626739884
-4.98545946
-6.381811498
-7.794771692
-9.206747493
-10.60504691
-11.98019732
-13.32244393
-14.61861844
-15.85143349
-17.00218699
-18.05629095
-19.00960745
-19.87287575
-20.67187741
-21.44233944
-22.22045525
-23.03162538
-23.88093079
-24.74858198
-25.59218464
-26.35557828
-26.98193827
-27.42748323
-27.67194554
-27.72297007
-27.61341703
-27.39253249
-27.11350363
-26.82065326
-26.53936514
-26.27094214
-25.99330488
-25.66710499
-25.24576274
-24.68731708
-23.96579854
-23.07999646
-22.05787585
-20.95546985
-19.84986322
-18.82691352
-17.96554766
-17.32158197
-16.9146919
-16.72205422
-16.6811155
-16.7019944
-16.68760613
-16.55733971
-16.2687179
-15.8314486
-15.3097893
-14.81189665
-14.468127
-14.40319215
-14.70881168
-15.42351683
-16.52451997
-17.93354179
-19.53500503
-21.20198233
-22.82350099
-24.32668301
-25.68871008
-26.93629709
-28.13349436
-29.36140749
-30.69516083
-32.18377984
-33.83764315
-35.62609555
-37.48526127
-39.33366217
-41.09148351
-42.69863527
-44.12726805
-45.38595317
-46.51489268
-47.57372538
-48.62521351
-49.7189674
-50.87922768
-52.09962337
-53.34600643
-54.56636625
-55.70498634
-56.71691883
-57.57883368
-58.29337483
-58.88604539
-59.39581835
-59.86248915
-60.31469679
-60.76225095
-61.19499425
-61.58832907
-61.9133895
-62.14831148
-62.28664929
-62.33987769
-62.33286707
-62.29361785
-62.2405963
-62.17201877
-62.06101466
-61.85886226
-61.50597637
-60.94783384
-60.15134385
-59.11683767
-57.88197045
-56.51605748
-55.10604631
-53.73767099
-52.47666938
-51.35489644
-50.36478592
-49.46334207
-48.58435646
-47.65552319
-46.61606658
-45.43061001
-44.09620022
-42.64128494
-41.11748326
-39.58662237
-38.10631369
-36.7171526
-35.43361817
-34.23936091
-33.08633602
-31.89659888
-30.56568678
-28.96720595
-26.95913486
-24.3929787
-21.12688514
-17.04299047
-12.0677332
-6.192075258
0.512859443
7.889639413
15.70176677
23.65573554
31.43590108
38.7466257
45.35359806
51.1155173
55.99892025
60.07257411
63.48266747
66.41469636
69.05112127
71.53464011
73.94507651
76.29400982
78.53654486
80.595399
82.38990529
83.86216807
84.9943549
85.81424979
86.38966431
86.81504641
87.19492763
87.62854018
88.19839982
88.96364049
89.95721838
91.18535318
92.62788054
94.23922886
95.95087996
97.67677078
99.32274346
100.7998847
102.0398694
103.008939
103.716583
104.2157256
104.5931873
104.951858
105.3885564
105.973109
106.734173
107.655633
108.6844753
109.7477546
110.7736505
111.7105033
112.5384649
113.270754
113.944704
114.6058177
115.2899623
116.0091198
116.7447341
117.4501957
118.0612065
118.5105581
118.742876
118.7253321
118.4519277
117.9410719
117.22809
116.3554264
115.3634302
114.2838637
113.1370601
111.9324399
110.6712349
109.349933
107.9631034
106.5047221
104.9676889
103.3417454
101.6104087
99.74781687
97.71653907
95.46741256
92.94224582
90.07972496
86.82410335
83.13539182
78.99905117
74.43289004
69.48916699
64.25078399
58.82174245
53.31338333
47.82898949
42.44981082
37.22534712
32.16984021
27.26558844
22.47221969
17.73978575
13.02276738
8.29197669
3.541928956
-1.207613324
-5.915820367
-10.5292672
-14.99233969
-19.25691754
-23.28907096
-27.07147674
-30.60152946
-33.88634025
-36.93663296
-39.76173016
-42.36730378
-44.75649832
-46.93375218
-48.90957711
-50.70408533
-52.34736469
-53.87581337
-55.32493646
-56.72041867
-58.07008425
-59.35935839
-60.55202544
-61.59666305
-62.43752142
-63.02728138
-63.33845849
-63.37044358
-63.15026165
-62.72682204
-62.16026282
-61.50943059
-60.82113463
-60.12434843
-59.43107694
-58.74354002
-58.06523455
-57.41199168
-56.81886933
-56.33980397
-56.03913055
-55.97670722
-56.19060889
-56.68245063
-57.41000921
-58.29004151
-59.21155945
-60.05702082
-60.72664246
-61.15989834
-61.34854922
-61.33728003
-61.21088304
-61.0702993
-61.00290629
-61.05439474
-61.20980751
-61.3895988
-61.46318122
-61.27808581
-60.69861614
-59.6448606
-58.12204875
-56.23191106
-54.16167505
-52.15170462
-50.44822585
-49.25165842
-48.67265628
-48.70653314
-49.23256248
-50.03870409
-50.86613677
-51.46319087
-51.63614045
-51.28536535
-50.41928562
-49.14410135
-47.63321744
-46.08479005
-44.6780208
-43.53825653
-42.7179762
-42.19630208
-41.89499005
-41.70511778
-41.51674324
-41.24397369
-40.83993309
-40.29934703
-39.64993689
-38.93660786
-38.20386838
-37.48178376
-36.77922918
-36.08579481
-35.38110004
-34.64816951
-33.88641409
-33.11989437
-32.39787084
-31.78681292
-31.35547104
-31.15664637
-31.21035925
-31.492926
-31.93506961
-32.43000658
-32.85005768
-33.06833296
-32.98090831
-32.52487141
-31.68862763
-30.51263991
-29.08088342
-27.50522101
-25.90621187
-24.3942989
-23.05486143
-21.93946933
-21.06416482
-20.41409795
-19.95266525
-19.632654
-19.40684373
-19.23599615
-19.09300535
-18.96296958
-18.83988358
-18.72138343
-18.60338903
-18.47649534
-18.32551368
-18.13269739
-17.88406463
-17.57713816
-17.22767846
-16.87285261
-16.56886295
-16.38227184
-16.37584499
-16.59132903
-17.03278803
-17.65461639
-18.35792759
-18.99768187
-19.40086039
-19.39359623
-18.83292181
-17.63719237
-15.80871991
-13.44295847
-10.72073781
-7.883276654
-5.193443777
-2.890164108
-1.145092444
-0.030966584
0.490910045
0.560543544
0.388028988
0.207734454
0.227966049
0.587419418
1.328212659
2.391359286
3.63514352
4.871379039
5.910378048
6.603683278
6.874625273
6.730214378
6.2527745
5.57474127
4.843889516
4.18803078
3.687645016
3.362317729
3.173048241
3.038496151
2.860016119
2.54861227
2.047039564
1.342051662
0.464697582
-0.520202385
-1.531574004
-2.491293141
-3.33984094
-4.044681034
-4.600057034
-5.019514474
-5.324492012
-5.533258426
-5.654079927
-5.684939756
-5.619873741
-5.459705829
-5.223358129
-4.955475194
-4.726997462
-4.627295432
-4.748957107
-5.168578528
-5.928282028
-7.022781279
-8.395597423
-9.945840086
-11.54439077
-13.05604146
-14.36273476
-15.3828708
-16.08271092
-16.47791207
-16.62561551
-16.60964509
-16.52268461
-16.44948299
-16.45419633
-16.57326928
-16.81337067
-17.15246389
-17.54157671
-17.90537879
-18.14104356
-18.11654632
-17.67091119
-16.61943621
-14.76632503
-11.92549479
-7.948000885
-2.752137002
3.649484092
11.13212918
19.45577618
28.27962716
37.19406668
45.76624172
53.59233023
60.34765624
65.82559828
69.9578888
72.81218698
74.56713225
75.46958555
75.78247533
75.73372746
75.47663307
75.06962925
74.47928382
73.60517035
72.32042232
70.51818568
68.15280985
65.26582162
61.99031988
58.53261467
55.13546892
52.03179816
49.39998807
47.33150648
45.81834039
44.7627901
44.00658462
43.37157764
42.70164753
41.89552092
40.92299295
39.82163299
38.67624233
37.5876487
36.63974876
35.87352474
35.27427346
34.77432342
34.26925417
33.64224549
32.78953339
31.64035877
30.16698698
28.38358
26.33590712
24.08616428
21.69796716
19.22581205
16.71134069
14.18628565
11.67977861
9.22640984
6.871371679
4.670171198
2.682367393
0.96094356
-0.459431065
-1.571406501
-2.398056868
-2.988668077
-3.408068294
-3.722425639
-3.985593979
-4.229922109
-4.463979806
-4.677365951
-4.850404732
-4.964894048
-5.011711547
-4.992176605
-4.912323616
-4.771988661
-4.552959093
-4.211527901
-3.680082325
-2.879827542
-1.743022534
-0.239318943
1.601746686
3.680309162
5.833560995
7.862127211
9.571006313
10.81578836
11.54228707
11.80840748
11.78102062
11.70683337
11.86300044
12.49860923
13.78066309
15.75713963
18.34547788
21.34867329
24.49469428
27.48978918
30.07358421
32.06415863
33.38427028
34.06472515
34.22628109
34.0461185
33.71773725
33.41361377
33.25817949
33.31532724
33.59071616
34.04567541
34.61731291
35.23889888
35.85561533
36.43284611
36.9566295
37.42801773
37.85438678
38.24100299
38.58547088
38.87637945
39.09597949
39.22549728
39.25103434
39.16803439
38.98292652
38.71153622
38.37488507
37.99378726
37.58398603
37.15337442
36.70217843
36.22604888
35.72108609
35.18918386
34.64191664
34.10155796
33.59859814
33.16608707
32.8319766
32.61114859
32.4988879
32.4672406
32.46512663
32.4224126
32.25751854
31.88759665
31.23990762
30.26274843
28.93418418
27.26694871
25.30825599
23.13394025
20.83729191
18.51404897
16.24600691
14.08634464
12.0497939
10.11008463
8.205729016
6.253405163
4.166378354
1.874045337
-0.661774876
-3.437547451
-6.407844354
-9.49418522
-12.60058317
-15.63188101
-18.5104202
-21.18723586
-23.64560917
-25.89695206
-27.97104091
-29.90398675
-31.72766117
-33.46352579
-35.12220704
-36.70821693
-38.22752725
-39.69475565
-41.13680135
-42.59086792
-44.09662256
-45.68424082
-47.36167495
-49.10516513
-50.85652955
-52.52919141
-54.02261932
-55.24248835
-56.12208942
-56.63985933
-56.82859183
-56.77375005
-56.60082459
-56.45420201
-56.47190348
-56.76141601
-57.38153535
-58.33379349
-59.56496852
-60.97981454
-62.46100456
-63.89181524
-65.1766232
-66.25492928
-67.10623118
-67.74525737
-68.20934672
-68.5415727
-68.77413136
-68.91631366
-68.95011957
-68.83457045
-68.51754938
-67.95210321
-67.11302827
-66.00948143
-64.6903043
-63.24047587
-61.76920299
-60.39212976
-59.21155074
-58.29902731
-57.68430106
-57.35295832
-57.2532373
-57.31017032
-57.44347947
